# tiempo (s), tension (V)
0.000000000000000000e+00,-5.188068964454387588e-01,-5.099251711024019862e-01
2.000000000000000164e-05,-5.079514543685569317e-01,-4.993986818928092264e-01
4.000000000000000327e-05,-4.972604887833388387e-01,-4.882142872077278595e-01
6.000000000000000830e-05,-4.857471413349861988e-01,-4.767009398432675571e-01
8.000000000000000654e-05,-4.748916995527128204e-01,-4.658454981383748361e-01
1.000000000000000048e-04,-4.633783523091199452e-01,-4.546611037497269026e-01
1.200000000000000166e-04,-4.523584343285644849e-01,-4.431477566835616555e-01
1.400000000000000148e-04,-4.406806108964593793e-01,-4.317988860996682110e-01
1.600000000000000131e-04,-4.293317403328967830e-01,-4.202855392251401145e-01
1.800000000000000113e-04,-4.179828698614642679e-01,-4.086077160616242709e-01
2.000000000000000096e-04,-4.064695230981831831e-01,-3.970943693718745893e-01
2.200000000000000078e-04,-3.946272236641905629e-01,-3.855810227702611837e-01
2.400000000000000332e-04,-3.831138770811529648e-01,-3.735742471198828518e-01
2.600000000000000314e-04,-3.712715778275019751e-01,-3.617319479369864865e-01
2.800000000000000297e-04,-3.591003259080437493e-01,-3.498896488395780713e-01
3.000000000000000279e-04,-3.472580268292799754e-01,-3.380473498250604614e-01
3.200000000000000262e-04,-3.355802042072285607e-01,-3.260405745173025061e-01
3.400000000000000244e-04,-3.237379052894048259e-01,-3.140337992893762475e-01
3.600000000000000227e-04,-3.114021773320102549e-01,-3.018625477671685875e-01
3.800000000000000209e-04,-2.993954021977507374e-01,-2.896912963213927883e-01
4.000000000000000192e-04,-2.873886271373151668e-01,-2.775200449492289945e-01
4.200000000000000174e-04,-2.750528994095379209e-01,-2.651843172793911796e-01
4.400000000000000157e-04,-2.627171717538914208e-01,-2.531775424144564468e-01
4.600000000000000139e-04,-2.507103969022056456e-01,-2.410062912462077878e-01
4.800000000000000664e-04,-2.382101930137601464e-01,-2.285060874085370342e-01
5.000000000000000104e-04,-2.260389419217642415e-01,-2.160058836335578547e-01
5.200000000000000629e-04,-2.135387381587973976e-01,-2.039991090111492322e-01
5.400000000000000069e-04,-2.012030108190195621e-01,-1.913344289866173720e-01
5.600000000000000594e-04,-1.890317598972530433e-01,-1.789987017429235938e-01
5.800000000000000034e-04,-1.763670799374118525e-01,-1.661695454617059253e-01
6.000000000000000559e-04,-1.637024000288429537e-01,-1.536693419537562832e-01
6.199999999999999999e-04,-1.510377201683693604e-01,-1.411691384902087898e-01
6.400000000000000524e-04,-1.387019930747540319e-01,-1.285044587074520017e-01
6.600000000000001048e-04,-1.260373132998954815e-01,-1.163332080441795702e-01
6.800000000000000488e-04,-1.135371099236597014e-01,-1.035040519757999822e-01
7.000000000000001013e-04,-1.008724302224765224e-01,-9.051041958206501592e-02
7.200000000000000453e-04,-8.787879783535762490e-02,-7.784573993730675712e-02
7.400000000000000978e-04,-7.554307091393336338e-02,-6.534553667762652007e-02
7.600000000000000418e-04,-6.304286765868574727e-02,-5.284533344076290662e-02
7.800000000000000943e-04,-5.021371170930689909e-02,-3.985170114966447852e-02
8.000000000000000383e-04,-3.754903213801963346e-02,-2.735149794986603544e-02
8.200000000000000908e-04,-2.471987622541930996e-02,-1.452234204832557329e-02
8.400000000000000348e-04,-1.189072032639429399e-02,-1.857662515251545798e-03
8.600000000000000873e-04,7.739592048610216546e-04,1.097149336776814810e-02
8.800000000000000313e-04,1.310968601442234760e-02,2.347169653159125041e-02
9.000000000000000838e-04,2.610331825004690715e-02,3.646532876653604122e-02
9.200000000000000278e-04,3.893247412774889643e-02,4.896553193133255932e-02
9.400000000000000803e-04,5.143267729331395949e-02,6.130125874370377648e-02
9.600000000000001327e-04,6.409735682217071462e-02,7.429489099469166469e-02
9.800000000000001852e-04,7.659756000237244455e-02,8.679509418434971924e-02
1.000000000000000021e-03,8.975566862599579365e-02,9.962425010449016405e-02
1.020000000000000073e-03,1.022558718338687500e-01,1.124534060430643079e-01
1.040000000000000126e-03,1.147560750598853735e-01,1.247891329275362671e-01
1.060000000000000178e-03,1.272562783071005954e-01,1.374538125529163879e-01
1.080000000000000014e-03,1.399209579375797485e-01,1.499540158464335304e-01
1.100000000000000066e-03,1.525856375961320288e-01,1.626186955294809944e-01
1.120000000000000119e-03,1.652503172859345060e-01,1.752833752462955585e-01
1.140000000000000171e-03,1.779149970101643330e-01,1.874546259180085994e-01
1.160000000000000007e-03,1.900862476896257869e-01,2.004482584327045291e-01
1.180000000000000059e-03,2.025864511292676251e-01,2.124550328221276319e-01
1.200000000000000112e-03,2.150866546115730304e-01,2.251197127026676459e-01
1.220000000000000164e-03,2.277513345021260904e-01,2.374554399065479660e-01
1.240000000000000000e-03,2.400870617163941012e-01,2.497911671602753569e-01
1.260000000000000052e-03,2.520938362533956534e-01,2.621268944667857204e-01
1.280000000000000105e-03,2.644295635700840141e-01,2.742981454638060423e-01
1.300000000000000157e-03,2.769297673084055167e-01,2.866338728838887517e-01
1.320000000000000210e-03,2.889365420090332925e-01,2.989696003655232248e-01
1.340000000000000045e-03,3.012722695024825370e-01,3.108118988085253331e-01
1.360000000000000098e-03,3.131145679573423823e-01,3.229831500507179820e-01
1.380000000000000150e-03,3.252858192122486392e-01,3.346609722527050801e-01
1.400000000000000203e-03,3.372925941663197369e-01,3.469967000019471559e-01
1.420000000000000038e-03,3.491348928194536461e-01,3.590034750840928046e-01
1.440000000000000091e-03,3.609771915430225464e-01,3.708457738683419436e-01
1.460000000000000143e-03,3.729839667123255875e-01,3.823591199806540830e-01
1.480000000000000196e-03,3.846617892118557869e-01,3.942014189156990422e-01
1.500000000000000031e-03,3.963396117874558033e-01,4.058792415552889832e-01
1.520000000000000084e-03,4.081819108176000244e-01,4.173925878985624838e-01
1.540000000000000136e-03,4.196952571768282070e-01,4.292348870787453530e-01
1.560000000000000189e-03,4.313730799955821649e-01,4.402548044504110969e-01
1.580000000000000024e-03,4.427219501412876790e-01,4.519326274222990047e-01
1.600000000000000077e-03,4.542352967512930384e-01,4.632814977210265583e-01
1.620000000000000129e-03,4.655841670676262867e-01,4.746303681074360847e-01
1.640000000000000182e-03,4.770975138554381934e-01,4.858147621994449716e-01
1.660000000000000234e-03,4.876240024285699581e-01,4.968346799953388127e-01
1.680000000000000070e-03,4.991373493967030672e-01,5.078545978802780914e-01
1.700000000000000122e-03,5.101572673005133618e-01,5.190389922447599114e-01
1.720000000000000175e-03,5.211771852958997364e-01,5.298944339256661529e-01
1.740000000000000227e-03,5.320326269948677522e-01,5.405853993078669761e-01
1.760000000000000063e-03,5.425591160037744887e-01,5.512763647816976142e-01
1.780000000000000115e-03,5.530856051018556707e-01,5.622962831372616543e-01
1.800000000000000168e-03,5.641055234739369428e-01,5.723293432208260700e-01
1.820000000000000220e-03,5.746320127602354555e-01,5.831847853750236066e-01
1.840000000000000056e-03,5.849940257439504299e-01,5.933823220372896889e-01
1.860000000000000108e-03,5.953560388212010279e-01,6.035798587915097713e-01
1.880000000000000161e-03,6.057180519937274132e-01,6.139418720408904573e-01
1.900000000000000213e-03,6.160800652632697494e-01,6.239749325824469617e-01
1.920000000000000265e-03,6.259486494212889163e-01,6.340079932178317446e-01
1.940000000000000101e-03,6.358172336703858951e-01,6.435476247301012975e-01
1.960000000000000370e-03,6.456858180120639279e-01,6.535806855530748027e-01
1.979999999999999989e-03,6.555544024478262566e-01,6.632847936558625701e-01
2.000000000000000042e-03,6.654229869791759011e-01,6.729889018522168254e-01
2.020000000000000094e-03,6.749626187850880088e-01,6.821995809060983351e-01
2.040000000000000147e-03,6.840088214447007653e-01,6.914102600467827431e-01
2.060000000000000199e-03,6.935484534312716942e-01,7.011143685223949484e-01
2.080000000000000251e-03,7.025946562646421256e-01,7.101605714278985682e-01
2.100000000000000304e-03,7.116408591843534914e-01,7.190422980018740251e-01
2.120000000000000356e-03,7.208515386106935097e-01,7.280885010815351110e-01
2.139999999999999975e-03,7.297332652874299885e-01,7.371347042507998548e-01
2.160000000000000028e-03,7.386149920507443234e-01,7.453585253924973619e-01
2.180000000000000080e-03,7.476611953257329413e-01,7.542402523107847312e-01
2.200000000000000133e-03,7.557205401391808852e-01,7.622995971845202279e-01
2.220000000000000185e-03,7.642733143077951041e-01,7.710168478462375852e-01
2.240000000000000237e-03,7.724971357031963359e-01,7.790761928761757993e-01
2.260000000000000290e-03,7.803920043168589560e-01,7.871355379824139797e-01
2.280000000000000342e-03,7.887803022992581070e-01,7.950304067326812163e-01
2.300000000000000395e-03,7.968396474984541511e-01,8.029252755577213074e-01
2.320000000000000014e-03,8.047345163407381152e-01,8.106556680220995403e-01
2.340000000000000066e-03,8.116425266398233918e-01,8.182215841218926089e-01
2.360000000000000119e-03,8.198663485007511298e-01,8.257875002924336405e-01
2.380000000000000171e-03,8.271033118076256407e-01,8.330244636528199020e-01
2.400000000000000223e-03,8.345047516210031269e-01,8.402614270791484152e-01
2.420000000000000276e-03,8.415772386183393294e-01,8.471694376845211316e-01
2.440000000000000328e-03,8.486497256793235078e-01,8.544064012414485099e-01
2.460000000000000381e-03,8.557222128045089971e-01,8.608209826325711189e-01
2.480000000000000000e-03,8.623012706535032601e-01,8.677289934214227340e-01
2.500000000000000052e-03,8.690448050073417141e-01,8.741435749243212650e-01
2.520000000000000104e-03,8.754593865213764481e-01,8.808871093835254351e-01
2.540000000000000157e-03,8.822029209923792914e-01,8.869727380938905448e-01
2.560000000000000209e-03,8.879595968083586754e-01,8.930583668540102993e-01
2.580000000000000262e-03,8.942097020304697885e-01,8.991439956642370834e-01
2.600000000000000314e-03,9.001308543949654295e-01,9.049006716122390825e-01
2.620000000000000367e-03,9.058875303507375465e-01,9.104928711481020676e-01
2.640000000000000419e-03,9.114797298941977877e-01,9.159205942683034118e-01
2.660000000000000038e-03,9.169074530218191965e-01,9.216772703495927921e-01
2.680000000000000090e-03,9.224996526506940020e-01,9.271049935543712595e-01
2.700000000000000143e-03,9.275984229386742275e-01,9.320392874128400340e-01
2.720000000000000195e-03,9.326971932632326379e-01,9.368091048420811306e-01
2.740000000000000248e-03,9.377959636245766228e-01,9.420723516980904488e-01
2.760000000000000300e-03,9.428947340229134610e-01,9.465132162636435975e-01
2.780000000000000353e-03,9.471711221276132298e-01,9.507896043905809114e-01
2.800000000000000405e-03,9.517764631928486985e-01,9.553949454798803531e-01
2.820000000000000024e-03,9.558883748841272565e-01,9.593423807237588807e-01
2.840000000000000076e-03,9.603292395382713176e-01,9.634542924602700342e-01
2.860000000000000129e-03,9.642766748105372487e-01,9.672372512797057231e-01
2.880000000000000181e-03,9.678951571634901718e-01,9.710202101201635960e-01
2.900000000000000234e-03,9.718425924795750515e-01,9.748031689817285850e-01
2.920000000000000286e-03,9.754610748728572700e-01,9.785861278644852890e-01
2.940000000000000339e-03,9.792440337593082411e-01,9.815467043962622373e-01
2.960000000000000391e-03,9.820401338194948426e-01,9.850007103665262553e-01
2.980000000000000444e-03,9.856586162676467255e-01,9.877968104507680591e-01
3.000000000000000062e-03,9.886191928307181964e-01,9.907573870233461477e-01
3.020000000000000115e-03,9.912508164533914146e-01,9.930600577000295859e-01
3.040000000000000167e-03,9.937179636091225676e-01,9.956916813403258182e-01
3.060000000000000220e-03,9.965140637300666793e-01,9.983233049911036661e-01
3.080000000000000272e-03,9.986522579481893480e-01,1.000297022736082564e+00
3.100000000000000325e-03,1.000790452173252687e+00,1.002270740486985723e+00
3.120000000000000377e-03,1.002764169925638438e+00,1.004408934723829638e+00
3.140000000000000430e-03,1.004737887683963438e+00,1.006053699526151979e+00
3.160000000000000048e-03,1.006711605448239233e+00,1.007698464332612565e+00
3.180000000000000101e-03,1.008027417294401928e+00,1.009014276180765224e+00
3.200000000000000153e-03,1.009507705624507201e+00,1.010330088031574425e+00
3.220000000000000206e-03,1.010823517476313382e+00,1.011645899885043498e+00
3.240000000000000258e-03,1.011810376366914399e+00,1.012468282294814115e+00
3.260000000000000311e-03,1.012468282294814115e+00,1.013455141187913577e+00
3.280000000000000363e-03,1.013290664705626343e+00,1.013948570635025970e+00
3.300000000000000416e-03,1.014113047117480404e+00,1.014113047117480404e+00
3.320000000000000468e-03,1.014442000082514062e+00,1.014606476565093507e+00
3.340000000000000087e-03,1.014606476565093507e+00,1.014770953047714697e+00
3.360000000000000139e-03,1.014606476565093507e+00,1.014770953047714697e+00
3.380000000000000192e-03,1.014935429530377631e+00,1.014606476565093507e+00
3.400000000000000244e-03,1.014770953047714697e+00,1.014277523599976361e+00
3.420000000000000297e-03,1.014113047117480404e+00,1.013948570635025970e+00
3.440000000000000349e-03,1.013619617670242778e+00,1.013126188223380408e+00
3.460000000000000402e-03,1.012961711741176218e+00,1.012303805812776902e+00
3.480000000000000454e-03,1.012303805812776902e+00,1.011645899885043498e+00
3.500000000000000073e-03,1.011152470439680595e+00,1.010001135068622879e+00
3.520000000000000125e-03,1.009672182105837424e+00,1.009014276180765224e+00
3.540000000000000178e-03,1.008685323218478258e+00,1.007698464332612565e+00
3.560000000000000230e-03,1.007205034890239492e+00,1.005724746565356709e+00
3.580000000000000283e-03,1.005724746565356709e+00,1.004079981763861040e+00
3.600000000000000335e-03,1.003915505283938803e+00,1.002270740486985723e+00
3.620000000000000388e-03,1.001777311048704044e+00,1.000132546257108457e+00
3.640000000000000440e-03,9.999680697781752059e-01,9.979943520341822971e-01
3.660000000000000493e-03,9.973364461208318321e-01,9.955272048625005699e-01
3.680000000000000111e-03,9.948692989516086937e-01,9.930600577000295859e-01
3.700000000000000164e-03,9.925666282686387287e-01,9.904284340701865474e-01
3.720000000000000216e-03,9.894415752116844098e-01,9.877968104507680591e-01
3.740000000000000269e-03,9.873033810232852980e-01,9.845072809411110626e-01
3.760000000000000321e-03,9.835204220913732476e-01,9.813822279219320821e-01
3.780000000000000374e-03,9.807243220250146942e-01,9.779282219703059331e-01
3.800000000000000426e-03,9.775992690234575067e-01,9.748031689817285850e-01
3.820000000000000479e-03,9.739807866187190077e-01,9.710202101201635960e-01
3.840000000000000531e-03,9.701978277617496760e-01,9.674017277505920775e-01
3.860000000000000150e-03,9.665793453965569881e-01,9.637832454002581706e-01
3.880000000000000202e-03,9.624674336412554210e-01,9.591779042548115308e-01
3.900000000000000255e-03,9.585199983794157053e-01,9.553949454798803531e-01
3.920000000000000741e-03,9.542436102046772950e-01,9.507896043905809114e-01
3.939999999999999926e-03,9.501316985231834655e-01,9.461842633318918727e-01
3.959999999999999978e-03,9.451974045375693967e-01,9.415789223036606925e-01
3.980000000000000031e-03,9.405920635158446785e-01,9.364801519148902020e-01
4.000000000000000083e-03,9.354932931342401226e-01,9.320392874128400340e-01
4.020000000000000136e-03,9.308879521761249665e-01,9.266115641704104622e-01
4.040000000000000188e-03,9.254602289424992412e-01,9.213483174294169187e-01
4.060000000000000241e-03,9.203614586697965727e-01,9.160850707271287474e-01
4.080000000000000293e-03,9.147692590575776661e-01,9.101639182330356626e-01
4.100000000000000346e-03,9.091770594887317314e-01,9.049006716122390825e-01
4.120000000000000398e-03,9.037493364190122280e-01,8.988150427542892507e-01
4.140000000000000450e-03,8.976637075706322966e-01,8.930583668540102993e-01
4.160000000000000503e-03,8.917425552259671262e-01,8.869727380938905448e-01
4.180000000000000555e-03,8.853279735726841126e-01,8.802292035799648140e-01
4.200000000000000608e-03,8.792423448757054061e-01,8.739790984748505576e-01
4.220000000000000660e-03,8.726632868803727572e-01,8.670710876293161729e-01
4.240000000000000713e-03,8.655907995991525272e-01,8.608209826325711189e-01
4.260000000000000765e-03,8.590117417219740314e-01,8.537484954607577059e-01
4.279999999999999950e-03,8.524326839010526458e-01,8.470049612408275808e-01
4.300000000000000003e-03,8.456891496925261764e-01,8.394390448682714778e-01
4.320000000000000055e-03,8.384521862163518691e-01,8.323665578900688589e-01
4.340000000000000108e-03,8.312152228065643467e-01,8.249651180965357211e-01
4.360000000000000160e-03,8.236493065848521367e-01,8.178926312465223392e-01
4.380000000000000213e-03,8.160833904343738343e-01,8.101622387136847570e-01
4.400000000000000265e-03,8.085174743544520926e-01,8.022673698194267011e-01
4.420000000000000318e-03,8.007870819101793325e-01,7.945369774336068502e-01
4.440000000000000370e-03,7.927277366728302521e-01,7.863131558251967856e-01
4.460000000000000422e-03,7.848328679442266864e-01,7.787472400163228947e-01
4.480000000000000475e-03,7.769379992894018816e-01,7.698655128481416421e-01
4.500000000000000527e-03,7.683852249957063840e-01,7.618061679044009216e-01
4.520000000000000580e-03,7.604903564921152714e-01,7.534178701849737481e-01
4.540000000000000632e-03,7.516086295108892479e-01,7.450295725453783824e-01
4.560000000000000685e-03,7.433848083116024741e-01,7.359833692969678376e-01
4.580000000000000737e-03,7.345030815013401382e-01,7.272661189796987280e-01
4.600000000000000790e-03,7.254568783582614477e-01,7.180554394894642645e-01
4.619999999999999975e-03,7.165751517228199363e-01,7.095026657591136932e-01
4.640000000000000027e-03,7.076934251723329128e-01,7.004564628599146969e-01
4.660000000000000080e-03,6.984827458752036478e-01,6.909168308048826423e-01
4.680000000000000132e-03,6.887786374262299116e-01,6.818706280812580900e-01
4.700000000000000185e-03,6.797324347224906749e-01,6.720020433872554433e-01
4.720000000000000237e-03,6.703572792811658410e-01,6.629558408372949740e-01
4.740000000000000289e-03,6.604886947014586562e-01,6.527583035147207502e-01
4.760000000000000342e-03,6.509490630326666416e-01,6.432186719178827339e-01
4.780000000000000394e-03,6.412449550467558268e-01,6.331856111949697441e-01
4.800000000000000447e-03,6.310474179385220372e-01,6.231525505673352061e-01
4.820000000000000499e-03,6.213433101363039501e-01,6.131194900333994946e-01
4.840000000000000552e-03,6.111457732179446101e-01,6.030864295915829842e-01
4.860000000000000604e-03,6.007837599948174789e-01,5.923954636466263191e-01
4.880000000000000657e-03,5.904217468678774061e-01,5.821979269931711887e-01
4.900000000000000709e-03,5.802242102319971062e-01,5.720003904298508468e-01
4.920000000000000762e-03,5.693687681053586358e-01,5.609804719850346455e-01
4.940000000000000814e-03,5.590067552593990241e-01,5.506184592113957388e-01
4.959999999999999999e-03,5.483157897181222262e-01,5.397630173521611452e-01
4.980000000000000052e-03,5.376248242698573598e-01,5.289075755872459927e-01
5.000000000000000104e-03,5.266049061338969883e-01,5.180521339146496596e-01
5.020000000000000157e-03,5.159139408686362893e-01,5.071966923323711907e-01
5.040000000000000209e-03,5.048940229172488303e-01,4.958478216816596396e-01
5.060000000000000261e-03,4.937096286711308846e-01,4.849923802778908222e-01
5.080000000000000314e-03,4.828541872841100036e-01,4.736435098094270435e-01
5.100000000000000366e-03,4.715053168327342226e-01,4.627880685757969070e-01
5.120000000000000419e-03,4.603209228521283336e-01,4.509457691395217793e-01
5.140000000000000471e-03,4.488075761957123211e-01,4.399258516919245521e-01
5.160000000000000524e-03,4.376231823844679569e-01,4.285769815664505211e-01
5.180000000000000576e-03,4.257808831422168483e-01,4.167346823910805798e-01
5.200000000000000629e-03,4.147609658702117175e-01,4.048923833009732132e-01
