# tiempo (s), tension (V)
0.000000000000000000e+00,-3.658438573656715986e-01,-3.799888258805649288e-01
2.800022400179201577e-05,-3.824559715647195546e-01,-3.964364638494307647e-01
5.600044800358403154e-05,-3.987391331792442539e-01,-4.128841019978882754e-01
8.400067200537605070e-05,-4.148578185881022229e-01,-4.288383111800656566e-01
1.120008960071680631e-04,-4.308120277924356589e-01,-4.447925205441203289e-01
1.400011200089600755e-04,-4.469307135658384666e-01,-4.604177773201870716e-01
1.680013440107521014e-04,-4.625559703670757417e-01,-4.762075106728603791e-01
1.960015680125441002e-04,-4.781812273556429460e-01,-4.918327678299785344e-01
2.240017920143361262e-04,-4.941354373224036145e-01,-5.071290723970859338e-01
2.520020160161281250e-04,-5.092672655240900736e-01,-5.220964243673300587e-01
2.800022400179201509e-04,-5.242346175215486515e-01,-5.377216821244095168e-01
3.080024640197121769e-04,-5.396953989089687820e-01,-5.526890344942186895e-01
3.360026880215042028e-04,-5.544982749042490777e-01,-5.673274342614634813e-01
3.640029120232962287e-04,-5.696301039058080384e-01,-5.816368814177677038e-01
3.920031360250882005e-04,-5.837750746876637642e-01,-5.962752815843276322e-01
4.200033600268802264e-04,-5.982489984766166113e-01,-6.104202527305077064e-01
4.480035840286722523e-04,-6.125584460605764114e-01,-6.245652240764769658e-01
4.760038080304642783e-04,-6.265389410246073876e-01,-6.382167663830525806e-01
5.040040320322562500e-04,-6.401904833590134070e-01,-6.518683088838239659e-01
5.320042560340483302e-04,-6.536775494710014289e-01,-6.655198515827701611e-01
5.600044800358403019e-04,-6.673290921965103761e-01,-6.786779652188180689e-01
5.880047040376323820e-04,-6.808161587026573258e-01,-6.918360790462338983e-01
6.160049280394243537e-04,-6.934808432882938467e-01,-7.046652402156174944e-01
6.440051520412163255e-04,-7.063100044816734702e-01,-7.171654487158933833e-01
6.720053760430084056e-04,-7.189746894348956197e-01,-7.290077516735692376e-01
7.000056000448003773e-04,-7.313104217123188588e-01,-7.415079605313089628e-01
7.280058240465924575e-04,-7.433172013025420855e-01,-7.538436931410658071e-01
7.560060480483844292e-04,-7.553239810666834142e-01,-7.650280908680089365e-01
7.840062720501764009e-04,-7.671662845687005072e-01,-7.765414416313660695e-01
8.120064960519684811e-04,-7.785151589217669255e-01,-7.880547925615287719e-01
8.400067200537604528e-04,-7.893706041071327784e-01,-7.985812849885358666e-01
8.680069440555525330e-04,-8.000615729975308899e-01,-8.094367304539472618e-01
8.960071680573445047e-04,-8.110814949318190248e-01,-8.197987467239788995e-01
9.240073920591364764e-04,-8.212790347741367736e-01,-8.301607631363873141e-01
9.520076160609285566e-04,-8.313120983021857757e-01,-8.401938267841237984e-01
9.800078400627205283e-04,-8.413451619655281100e-01,-8.494045082859589257e-01
1.008008064064512500e-03,-8.510492728520741013e-01,-8.589441428213240304e-01
1.036008288066304689e-03,-8.604244309501613008e-01,-8.681548245614527648e-01
1.064008512068096660e-03,-8.694706362482925721e-01,-8.772010299576749048e-01
1.092008736069888632e-03,-8.780234122721500833e-01,-8.857538060751823927e-01
1.120008960071680604e-03,-8.867406648646803946e-01,-8.939776293636720883e-01
1.148009184073472575e-03,-8.952934410988582226e-01,-9.018724998123646142e-01
1.176009408075264764e-03,-9.030238350936878877e-01,-9.094384174107487118e-01
1.204009632077056736e-03,-9.107542291755379438e-01,-9.170043350930638937e-01
1.232009856078848707e-03,-9.179911939274150168e-01,-9.242412999118311268e-01
1.260010080080640679e-03,-9.252281587567843246e-01,-9.313137883328049815e-01
1.288010304082432651e-03,-9.321361707121972318e-01,-9.378928473964288637e-01
1.316010528084224840e-03,-9.388797062616015543e-01,-9.439784770884885878e-01
1.344010752086016811e-03,-9.446363830045100274e-01,-9.500641068368508302e-01
1.372010976087808783e-03,-9.510509657202926848e-01,-9.556563071960985090e-01
1.400011200089600755e-03,-9.566431660880111432e-01,-9.610840311202005770e-01
1.428011424091392726e-03,-9.619064135369129742e-01,-9.663472786052759167e-01
1.456011648093184915e-03,-9.668407080592072989e-01,-9.709526201900505749e-01
1.484011872094976887e-03,-9.719394791053798111e-01,-9.757224382949319930e-01
1.512012096096768858e-03,-9.763803442432318347e-01,-9.801633034591662463e-01
1.540012320098560830e-03,-9.804922564355299519e-01,-9.839462626976661630e-01
1.568012544100352802e-03,-9.844396921652257548e-01,-9.875647454687294102e-01
1.596012768102144990e-03,-9.880581749391205149e-01,-9.910187517695988602e-01
1.624012992103936962e-03,-9.913477047516249252e-01,-9.938148521223219012e-01
1.652013216105728934e-03,-9.941438051058161252e-01,-9.966109524875398362e-01
1.680013440107520906e-03,-9.967754289800013767e-01,-9.987491468929231564e-01
1.708013664109312877e-03,-9.989136233859489122e-01,-1.000722864812101154e+00
1.736013888111105066e-03,-1.001380770786552743e+00,-1.002696582737547137e+00
1.764014112112897038e-03,-1.002861059231617391e+00,-1.004012394691332188e+00
1.792014336114689009e-03,-1.004341347680215213e+00,-1.005328206647912337e+00
1.820014560116480981e-03,-1.005492683142681587e+00,-1.006315065617183535e+00
1.848014784118272953e-03,-1.006150589122195571e+00,-1.006644018607290469e+00
1.876015008120065141e-03,-1.006644018607290469e+00,-1.006808495102409662e+00
1.904015232121857113e-03,-1.006644018607290469e+00,-1.006808495102409662e+00
1.932015456123649085e-03,-1.006644018607290469e+00,-1.006479542112215020e+00
1.960015680125441057e-03,-1.006315065617183535e+00,-1.005657159637494358e+00
1.988015904127233245e-03,-1.005328206647912337e+00,-1.004505824174722006e+00
2.016016128129025000e-03,-1.004341347680215213e+00,-1.003190012219889127e+00
2.044016352130817189e-03,-1.002696582737547137e+00,-1.001709723774039773e+00
2.072016576132609377e-03,-1.001051817799239796e+00,-9.992425763721307641e-01
2.100016800134401132e-03,-9.990780998790181888e-01,-9.972688584576460125e-01
2.128017024136193321e-03,-9.967754289800013767e-01,-9.944727580894830998e-01
2.156017248137985075e-03,-9.943082815976279631e-01,-9.916766577338232969e-01
2.184017472139777264e-03,-9.911832282605902433e-01,-9.883871279195960424e-01
2.212017696141569453e-03,-9.880581749391205149e-01,-9.844396921652257548e-01
2.240017920143361208e-03,-9.841107391868099130e-01,-9.811501623887698420e-01
2.268018144145153396e-03,-9.804922564355299519e-01,-9.772027266795632050e-01
2.296018368146945151e-03,-9.762158677560931475e-01,-9.724329085636155279e-01
2.324018592148737340e-03,-9.719394791053798111e-01,-9.679920434531866791e-01
2.352018816150529528e-03,-9.670051845439350258e-01,-9.628932724383499897e-01
2.380019040152321283e-03,-9.619064135369129742e-01,-9.573010720167859366e-01
2.408019264154113472e-03,-9.564786896059215282e-01,-9.518733481243001338e-01
2.436019488155905226e-03,-9.505575362783854620e-01,-9.459521948385282153e-01
2.464019712157697415e-03,-9.448008594836182494e-01,-9.395376121725346197e-01
2.492019936159489604e-03,-9.385507533063802699e-01,-9.329585530926051140e-01
2.520020160161281358e-03,-9.319716942362376022e-01,-9.260505411286878985e-01
2.548020384163073547e-03,-9.248992058083053136e-01,-9.189780527632074314e-01
2.576020608164865302e-03,-9.181556703999469438e-01,-9.115766115298219452e-01
2.604020832166657490e-03,-9.104252762341024097e-01,-9.040106939077869885e-01
2.632021056168449679e-03,-9.026948821559701575e-01,-8.959513469673887620e-01
2.660021280170241434e-03,-8.949644881648274319e-01,-8.878920001208560064e-01
2.688021504172033622e-03,-8.869051413297323050e-01,-8.795037004406212056e-01
2.716021728173825377e-03,-8.778589358091783978e-01,-8.707864479375628797e-01
2.744021952175617566e-03,-8.691416833263549968e-01,-8.610823367861770716e-01
2.772022176177409754e-03,-8.602599544912513663e-01,-8.523650845076438110e-01
2.800022400179201509e-03,-8.508847963952951288e-01,-8.426609736036257958e-01
2.828022624180993698e-03,-8.411806855109313918e-01,-8.326279099224229707e-01
2.856022848182785453e-03,-8.309831453974901860e-01,-8.225948463767206453e-01
2.884023072184577641e-03,-8.211145583239756185e-01,-8.123973065166724128e-01
2.912023296186369830e-03,-8.107525420359609214e-01,-8.018708139012683533e-01
2.940023520188161585e-03,-7.997326201063980067e-01,-7.905219392113518317e-01
2.968023744189953773e-03,-7.890416512205243871e-01,-7.796664940101026842e-01
2.996023968191745528e-03,-7.781862060396925740e-01,-7.684820960796434619e-01
3.024024192193537717e-03,-7.666728552526521634e-01,-7.566397925583752126e-01
3.052024416195329905e-03,-7.549950281940921437e-01,-7.449619656434531834e-01
3.080024640197121660e-03,-7.429882484347516414e-01,-7.329551860295656640e-01
3.108024864198913849e-03,-7.311459452807709258e-01,-7.207839301577220192e-01
3.136025088200705604e-03,-7.188102130057375527e-01,-7.079547687508366272e-01
3.164025312202497792e-03,-7.061455280549281399e-01,-6.952900839580860026e-01
3.192025536204289981e-03,-6.934808432882938467e-01,-6.822964465021295055e-01
3.220025760206081736e-03,-6.806516822806436551e-01,-6.694672856537029482e-01
3.248025984207873924e-03,-6.676580450357544327e-01,-6.556512664791757095e-01
3.276026208209665679e-03,-6.535130730538412092e-01,-6.423286767542323306e-01
3.304026432211457868e-03,-6.401904833590134070e-01,-6.286771343895828368e-01
3.332026656213250056e-03,-6.267034174371314270e-01,-6.146966393952255636e-01
3.360026880215041811e-03,-6.122294932402679857e-01,-6.002227153727215381e-01
3.388027104216834000e-03,-5.982489984766166113e-01,-5.859132679619346584e-01
3.416027328218625755e-03,-5.841040274988049674e-01,-5.714393443441262432e-01
3.444027552220417943e-03,-5.693011510991701218e-01,-5.568009445213296660e-01
3.472027776222210132e-03,-5.546627513053087322e-01,-5.418335920961452334e-01
3.500028000224001887e-03,-5.400243517067313537e-01,-5.267017634736319565e-01
3.528028224225794075e-03,-5.245635703148554541e-01,-5.115699350497762143e-01
3.556028448227585830e-03,-5.094317419186339402e-01,-4.961091540336423078e-01
3.584028672229378019e-03,-4.938064845375068623e-01,-4.806483732134597675e-01
3.612028896231170207e-03,-4.783457037460138173e-01,-4.648586398061099745e-01
3.640029120232961962e-03,-4.628849231438311174e-01,-4.490689065909526656e-01
3.668029344234754151e-03,-4.470951899522649375e-01,-4.329502207923248136e-01
3.696029568236545906e-03,-4.304830750235135728e-01,-4.169960115638794429e-01
3.724029792238338094e-03,-4.145288658228795109e-01,-4.007128497504718334e-01
3.752030016240130283e-03,-3.985746567984260746e-01,-3.845941644941467397e-01
3.780030240241922038e-03,-3.822914951856545285e-01,-3.679820502726972586e-01
3.808030464243714226e-03,-3.656793809883249757e-01,-3.515344125980912615e-01
3.836030688245505981e-03,-3.489027905852380984e-01,-3.347578223353883109e-01
3.864030912247298170e-03,-3.324551530962742696e-01,-3.179812322323810614e-01
3.892031136249090358e-03,-3.158430393872129205e-01,-3.008756895390259922e-01
3.920031360250882113e-03,-2.987374967131001258e-01,-2.839346233660970942e-01
3.948031584252674302e-03,-2.813030014490793818e-01,-2.668290809646068906e-01
3.976031808254466490e-03,-2.646908881740687169e-01,-2.497235386980496130e-01
4.004032032256258679e-03,-2.474208695566615102e-01,-2.324535201924629313e-01
4.032032256258050000e-03,-2.298218983358129297e-01,-2.150190254433762271e-01
4.060032480259842189e-03,-2.125518799695384209e-01,-1.979134835377469870e-01
4.088032704261634377e-03,-1.952818617154846448e-01,-1.803145126465185433e-01
4.116032928263426566e-03,-1.776828908398891682e-01,-1.627155418562101774e-01
4.144033152265218754e-03,-1.600839200639389281e-01,-1.454455238808261552e-01
4.172033376267010076e-03,-1.426494257402532995e-01,-1.276820769047687376e-01
4.200033600268802264e-03,-1.253794078581290661e-01,-1.099186300055513543e-01
4.228033824270594453e-03,-1.072870082487055177e-01,-9.231965953366932931e-02
4.256034048272386641e-03,-8.968803778608236410e-02,-7.422726004382110276e-02
4.284034272274178830e-03,-7.192459102178871966e-02,-5.695724239792704369e-02
4.312034496275970151e-03,-5.432562066508998810e-02,-3.902931935972769883e-02
4.340034720277762340e-03,-3.606874491653627723e-02,-2.077244363981135822e-02
4.368034944279554528e-03,-1.830529827441629287e-02,-3.502426090484400678e-03
4.396035168281346717e-03,-1.035280727682941215e-03,1.458997323127343704e-02
4.424035392283138905e-03,1.689264223517442098e-02,3.218894347394405525e-02
4.452035616284930226e-03,3.482056519244027676e-02,4.978791371863637572e-02
4.480035840286722415e-03,5.274848815312703498e-02,6.788031304668759591e-02
4.508036064288514604e-03,7.001850569571684002e-02,8.564375967948498203e-02
4.536036288290306792e-03,8.811090504720163474e-02,1.032427299825915135e-01
4.564036512292098981e-03,1.060388280712666054e-01,1.211706530391684911e-01
4.592036736293890302e-03,1.234733220588134922e-01,1.386051470656282092e-01
4.620036960295682490e-03,1.410722924507858134e-01,1.562041175041764263e-01
4.648037184297474679e-03,1.585067865379304330e-01,1.738030880048221927e-01
4.676037408299266868e-03,1.765991861280287734e-01,1.912375822152586335e-01
4.704037632301059056e-03,1.937047276284716568e-01,2.088365528648964409e-01
4.732037856302850377e-03,2.113036982898751637e-01,2.262710472396663453e-01
4.760038080304642566e-03,2.285737163148992002e-01,2.432121126185722571e-01
4.788038304306434755e-03,2.455147817064883831e-01,2.604821308227624477e-01
4.816038528308226943e-03,2.627847999246720190e-01,2.779166255008239106e-01
4.844038752310019132e-03,2.800548182523716068e-01,2.948576911979581272e-01
4.872038976311810453e-03,2.973248366976434243e-01,3.114698042793757615e-01
4.900039200313602641e-03,3.139369497967776645e-01,3.287398229591729226e-01
4.928039424315394830e-03,3.312069684961219673e-01,3.455164126680875247e-01
4.956039648317187019e-03,3.479835582251273873e-01,3.619640497732473650e-01
4.984039872318979207e-03,3.642667189790862459e-01,3.785761633929073389e-01
5.012040096320770528e-03,3.810433089927164341e-01,3.955172299133923319e-01
5.040040320322562717e-03,3.976554227867680202e-01,4.116359147169839083e-01
5.068040544324354905e-03,4.137741076106618010e-01,4.277545996764631209e-01
5.096040768326147094e-03,4.302217453476973041e-01,4.438732847983797303e-01
5.124040992327939283e-03,4.461759541151528730e-01,4.598274937078892233e-01
5.152041216329730604e-03,4.616367339042378726e-01,4.754527500229632775e-01
5.180041440331522792e-03,4.775909430055509386e-01,4.909135301239231364e-01
5.208041664333314981e-03,4.932161995153284684e-01,5.065387867847888081e-01
5.236041888335107169e-03,5.088414562027476773e-01,5.221640436283835340e-01
5.264042112336899358e-03,5.243022366846826765e-01,5.372958714882882791e-01
5.292042336338690679e-03,5.391051117879862575e-01,5.520987467450731989e-01
5.320042560340482868e-03,5.542369398524461532e-01,5.673950513658390093e-01
5.348042784342275056e-03,5.693687681053586358e-01,5.818689741994079734e-01
5.376043008344067245e-03,5.838426909633949169e-01,5.963428972144523277e-01
5.404043232345859434e-03,5.983166140035534042e-01,6.104878676135832016e-01
5.432043456347650755e-03,6.127905372305764153e-01,6.251262674046627055e-01
5.460043680349442943e-03,6.266065550350452540e-01,6.382843797470673097e-01
5.488043904351235132e-03,6.404225730182230292e-01,6.524293506995642034e-01
5.516044128353027320e-03,6.544030675920906592e-01,6.659164162082795713e-01
5.544044352354819509e-03,6.680546095372046356e-01,6.790745290745774376e-01
5.572044576356610830e-03,6.810482460196412013e-01,6.923971185313411159e-01
5.600044800358403019e-03,6.943708355034952096e-01,7.053907553396434604e-01
5.628045024360195207e-03,7.070355195052758779e-01,7.180554394894642645e-01
5.656045248361987396e-03,7.198646800963529602e-01,7.305556473914903703e-01
5.684045472363779584e-03,7.322004116018415720e-01,7.427269026189400325e-01
5.712045696365570906e-03,7.445361432749273423e-01,7.548981580119865642e-01
5.740045920367363094e-03,7.565429222671450349e-01,7.665759842906197941e-01
5.768046144369155283e-03,7.682207485678146375e-01,7.782538107267819028e-01
5.796046368370947471e-03,7.797340985962628590e-01,7.897671608909090368e-01
5.824046592372739660e-03,7.910829723482490916e-01,8.002936526076857016e-01
5.852046816374530981e-03,8.021028933849350118e-01,8.113135737671163250e-01
5.880047040376323170e-03,8.127938616953434003e-01,8.218400657598046166e-01
5.908047264378115358e-03,8.234848301460432340e-01,8.322020814494661689e-01
5.936047488379907547e-03,8.335178929752409260e-01,8.420706679461036348e-01
5.964047712381699735e-03,8.437154323742246387e-01,8.521037310114752961e-01
5.992047936383491057e-03,8.537484954607577059e-01,8.616433648660696276e-01
6.020048160385283245e-03,8.629591764415018851e-01,8.710185223904914897e-01
6.048048384387075434e-03,8.721698575330334435e-01,8.799002506784008304e-01
6.076048608388867622e-03,8.813805387365747368e-01,8.886175026187316250e-01
6.104048832390659811e-03,8.897688377882865263e-01,8.971702782067599857e-01
6.132049056392451132e-03,8.984860898444888555e-01,9.052296245249233930e-01
6.160049280394243321e-03,9.063809597204881552e-01,9.134534473904278862e-01
6.188049504396035509e-03,9.142758296821154040e-01,9.210193645093923687e-01
6.216049728397827698e-03,9.220062232699197668e-01,9.280918523233199213e-01
6.244049952399619886e-03,9.290787110936395976e-01,9.354932931342401226e-01
6.272050176401411208e-03,9.363156754513525248e-01,9.420723516980904488e-01
6.300050400403203396e-03,9.432236869531136492e-01,9.484869338574197783e-01
6.328050624404995585e-03,9.493093161898141785e-01,9.547370396081005239e-01
6.356050848406787773e-03,9.553949454798803531e-01,9.606581924767576552e-01
6.384051072408579962e-03,9.616450512931639105e-01,9.662503924552209300e-01
6.412051296410371283e-03,9.669082983380518082e-01,9.716781160076127799e-01
6.440051520412163472e-03,9.723360218957008971e-01,9.767768866570392117e-01
6.468051744413955660e-03,9.774347925500935785e-01,9.813822279219320821e-01
6.496051968415747849e-03,9.818756573450435621e-01,9.858230927430281509e-01
6.524052192417540037e-03,9.863165221694155660e-01,9.897705281643557340e-01
6.552052416419331358e-03,9.905929105467460305e-01,9.933890106544943643e-01
6.580052640421123547e-03,9.942113930413714051e-01,9.971719696425969115e-01
6.608052864422915736e-03,9.975009225991079420e-01,1.000132546257108457e+00
6.636053088424707924e-03,1.000625975694154901e+00,1.003093122884946453e+00
6.664053312426500113e-03,1.003586552324218006e+00,1.005724746565356709e+00
6.692053536428291434e-03,1.006053699526151979e+00,1.008191893775358672e+00
6.720053760430083623e-03,1.008191893775358672e+00,1.009836658587209390e+00
6.748053984431875811e-03,1.010001135068622879e+00,1.011481423403214341e+00
6.776054208433668000e-03,1.011645899885043498e+00,1.012632758776893294e+00
6.804054432435460188e-03,1.012632758776893294e+00,1.013784094152613724e+00
6.832054656437251509e-03,1.014113047117480404e+00,1.014770953047714697e+00
6.860054880439043698e-03,1.014606476565093507e+00,1.014606476565093507e+00
6.888055104440835887e-03,1.014935429530377631e+00,1.014606476565093507e+00
6.916055328442628075e-03,1.015099906013082309e+00,1.015099906013082309e+00
6.944055552444420264e-03,1.014277523599976361e+00,1.013948570635025970e+00
6.972055776446211585e-03,1.013948570635025970e+00,1.013290664705626343e+00
7.000056000448003773e-03,1.012797235259013995e+00,1.011810376366914399e+00
7.028056224449795962e-03,1.011810376366914399e+00,1.010494564513112481e+00
7.056056448451588151e-03,1.010494564513112481e+00,1.008849799699601091e+00
7.084056672453380339e-03,1.008356370256356938e+00,1.006711605448239233e+00
7.112056896455171660e-03,1.006218176006611564e+00,1.004079981763861040e+00
7.140057120456963849e-03,1.003751028804057865e+00,1.001283881610792958e+00
7.168057344458756037e-03,1.001119405131571716e+00,9.983233049911036661e-01
7.196057568460548226e-03,9.978298755557831745e-01,9.948692989516086937e-01
