# tiempo (s), tension (V)
0.000000000000000000e+00,9.261181347867919467e-01,9.249667995596784209e-01
7.999999999999999638e-06,9.241444172557359282e-01,9.231575584922563360e-01
1.599999999999999928e-05,9.221706997301400976e-01,9.211838409693857699e-01
2.400000000000000061e-05,9.198680292904961586e-01,9.187166940734489140e-01
3.199999999999999855e-05,9.178943117766888982e-01,9.164140236448921062e-01
3.999999999999999650e-05,9.154271648920528914e-01,9.141113532237028494e-01
4.800000000000000122e-05,9.131244944740152247e-01,9.121376357256758549e-01
5.599999999999999916e-05,9.111507769786831856e-01,9.099994417755583598e-01
6.399999999999999710e-05,9.090125830314783606e-01,9.075322949178740162e-01
7.200000000000000182e-05,9.065454361771461134e-01,9.055585774377561403e-01
7.999999999999999299e-05,9.040782893311773982e-01,9.030914305951265320e-01
8.799999999999999771e-05,9.017756189491318297e-01,9.007887602161886997e-01
9.600000000000000243e-05,8.996374250294352226e-01,8.984860898444888555e-01
1.039999999999999936e-04,8.971702782067599857e-01,8.956899901171280209e-01
1.119999999999999983e-04,8.947031313923590190e-01,8.933873197613870776e-01
1.199999999999999895e-04,8.920715081327584839e-01,8.912491258660540927e-01
1.279999999999999942e-04,8.896043613353835644e-01,8.887819790714158730e-01
1.359999999999999989e-04,8.873016909985678158e-01,8.861503558328334140e-01
1.440000000000000036e-04,8.851634971207630320e-01,8.836832090551047791e-01
1.519999999999999813e-04,8.822029209923792914e-01,8.810515858345058238e-01
1.599999999999999860e-04,8.800647271291648366e-01,8.785844390735864096e-01
1.679999999999999907e-04,8.772686274710751464e-01,8.761172923207645180e-01
1.759999999999999954e-04,8.746370042729482153e-01,8.734856691266531525e-01
1.840000000000000001e-04,8.721698575330334435e-01,8.710185223904914897e-01
1.920000000000000049e-04,8.693737579041771468e-01,8.680579463176891775e-01
1.999999999999999825e-04,8.669066111813783504e-01,8.654263231515338939e-01
2.079999999999999872e-04,8.641105115718594742e-01,8.629591764415018851e-01
2.159999999999999919e-04,8.614788884192995377e-01,8.603275532928948977e-01
2.239999999999999966e-04,8.590117417219740314e-01,8.575314537073776000e-01
2.320000000000000014e-04,8.558866892500490708e-01,8.545708776867085854e-01
2.399999999999999790e-04,8.534195425706219140e-01,8.521037310114752961e-01
2.480000000000000108e-04,8.506234430101025090e-01,8.493076314556936568e-01
2.559999999999999884e-04,8.479918199035089144e-01,8.463470554663998779e-01
2.639999999999999660e-04,8.451957203624842485e-01,8.438799088172265206e-01
2.719999999999999979e-04,8.420706679461036348e-01,8.407548564060871588e-01
2.799999999999999755e-04,8.392745684261990746e-01,8.379587568908550832e-01
2.880000000000000073e-04,8.366429453577044484e-01,8.351626573855270852e-01
2.959999999999999849e-04,8.336823694161159537e-01,8.322020814494661689e-01
3.039999999999999625e-04,8.307217934855724017e-01,8.292415055244297672e-01
3.119999999999999944e-04,8.277612175660329363e-01,8.262809296103772461e-01
3.199999999999999720e-04,8.246361652184126534e-01,8.233203537072680822e-01
3.280000000000000038e-04,8.218400657598046166e-01,8.201953013769246459e-01
3.359999999999999814e-04,8.188794898730343830e-01,8.175636783712857403e-01
3.439999999999999590e-04,8.159189139971060323e-01,8.144386260631949481e-01
3.519999999999999908e-04,8.127938616953434003e-01,8.113135737671163250e-01
3.599999999999999685e-04,8.096688094055677354e-01,8.076950921760746027e-01
3.680000000000000003e-04,8.067082335631101664e-01,8.050634692108045165e-01
3.759999999999999779e-04,8.035831812965407162e-01,8.021028933849350118e-01
3.840000000000000097e-04,8.004581290418176787e-01,7.988133647019686201e-01
3.919999999999999873e-04,7.973330767988930923e-01,7.960172653317063585e-01
3.999999999999999650e-04,7.940435481348244728e-01,7.923987838076553825e-01
4.079999999999999968e-04,7.910829723482490916e-01,7.894382080268965707e-01
4.159999999999999744e-04,7.879579201404340871e-01,7.859842029625345727e-01
4.240000000000000062e-04,7.846683915131680287e-01,7.828591507736338828e-01
4.319999999999999838e-04,7.813788628987080598e-01,7.797340985962628590e-01
4.399999999999999615e-04,7.779248578672466330e-01,7.762800935714726513e-01
4.479999999999999933e-04,7.747998057079833467e-01,7.731550414182188913e-01
4.559999999999999709e-04,7.713458007031193109e-01,7.698655128481416421e-01
4.640000000000000027e-04,7.683852249957063840e-01,7.662470314355559475e-01
4.719999999999999803e-04,7.650956964438162533e-01,7.631219793186736489e-01
4.799999999999999580e-04,7.613127386245611694e-01,7.593390215079925953e-01
4.879999999999999898e-04,7.580232100994230837e-01,7.562139694158669379e-01
4.960000000000000216e-04,7.545692051613241969e-01,7.529244409098554414e-01
5.039999999999999992e-04,7.512796766614540100e-01,7.496349124161126865e-01
5.119999999999999768e-04,7.479901481738246982e-01,7.461809075108262190e-01
5.199999999999999544e-04,7.440427140047491950e-01,7.425624261958501116e-01
5.279999999999999321e-04,7.407531855438540536e-01,7.391084213179335283e-01
5.360000000000000181e-04,7.372991806728956821e-01,7.356544164532855534e-01
5.439999999999999957e-04,7.336806993937047272e-01,7.320359351806724479e-01
5.519999999999999733e-04,7.305556473914903703e-01,7.290753596047161444e-01
5.599999999999999509e-04,7.267726897189521473e-01,7.251279255183840089e-01
5.679999999999999286e-04,7.231542084815950622e-01,7.213449678682595234e-01
5.760000000000000146e-04,7.195357272584735897e-01,7.177264866522280462e-01
5.839999999999999922e-04,7.160817224677964443e-01,7.141080054503208263e-01
5.919999999999999698e-04,7.126277176899582511e-01,7.104895242624640339e-01
5.999999999999999474e-04,7.088447600907902268e-01,7.068710430885835061e-01
6.079999999999999251e-04,7.048973260905129212e-01,7.032525619286049690e-01
6.160000000000000111e-04,7.014433213538059375e-01,6.994696043670477481e-01
6.239999999999999887e-04,6.978248402145416085e-01,6.958511232352745379e-01
6.319999999999999663e-04,6.940418826745212710e-01,6.922326421171778321e-01
6.399999999999999439e-04,6.904234015632348953e-01,6.884496845991646685e-01
6.479999999999999215e-04,6.864759676391183341e-01,6.848312035088115479e-01
6.560000000000000076e-04,6.828574865561112262e-01,6.812127224319093344e-01
6.639999999999999852e-04,6.792390054865145022e-01,6.772652885450874960e-01
6.719999999999999628e-04,6.751270951963384004e-01,6.734823310850657219e-01
6.799999999999999404e-04,6.715086141551427357e-01,6.696993736394912800e-01
6.879999999999999180e-04,6.675611803070470307e-01,6.655874633888501091e-01
6.960000000000000041e-04,6.637782228839158583e-01,6.616400295640981755e-01
7.039999999999999817e-04,6.595018362488114239e-01,6.578570721632027718e-01
7.119999999999999593e-04,6.562123080802590991e-01,6.539096383686017200e-01
7.199999999999999369e-04,6.522648742920255094e-01,6.502911574036198683e-01
7.279999999999999145e-04,6.483174405190058609e-01,6.465082000447631705e-01
7.360000000000000006e-04,6.442055303548510636e-01,6.422318134818515434e-01
7.439999999999999782e-04,6.402580966125941409e-01,6.381199033417745969e-01
7.519999999999999558e-04,6.364751392902675553e-01,6.345014224318565876e-01
7.599999999999999334e-04,6.325277055771411083e-01,6.305539887261085719e-01
7.680000000000000195e-04,6.285802718787473209e-01,6.264420786315681999e-01
7.759999999999999971e-04,6.244683617918165286e-01,6.224946449556990613e-01
7.839999999999999747e-04,6.203564517206587858e-01,6.185472112943182221e-01
7.919999999999999523e-04,6.162445416651651797e-01,6.142708248440603702e-01
7.999999999999999299e-04,6.122971080265273702e-01,6.101589148115503791e-01
8.080000000000000160e-04,6.080207216007359472e-01,6.062114811948252635e-01
8.159999999999999936e-04,6.042377643917531405e-01,6.022640475921916536e-01
8.239999999999999712e-04,6.002903307961291457e-01,5.978231848059527564e-01
8.319999999999999488e-04,5.958494680177185421e-01,5.937112748343685853e-01
8.399999999999999264e-04,5.922309872482661719e-01,5.897638412757232329e-01
8.480000000000000124e-04,5.877901245015404452e-01,5.854874549359704305e-01
8.559999999999999901e-04,5.833492617720811291e-01,5.813755450089389543e-01
8.639999999999999677e-04,5.794018282491683047e-01,5.772636350965408836e-01
8.719999999999999453e-04,5.751254419478408764e-01,5.731517251986675276e-01
8.799999999999999229e-04,5.710135320574772910e-01,5.688753389201700594e-01
8.880000000000000089e-04,5.664081929973123763e-01,5.645989526571424388e-01
8.959999999999999866e-04,5.622962831372616543e-01,5.604870428033218444e-01
9.039999999999999642e-04,5.581843732913397416e-01,5.560461801770080204e-01
9.119999999999999418e-04,5.540724634594379472e-01,5.520987467450731989e-01
9.199999999999999194e-04,5.496316008566061173e-01,5.478223605415541986e-01
9.280000000000000054e-04,5.456841674453779545e-01,5.433814979613272866e-01
9.359999999999999831e-04,5.412433048728217955e-01,5.391051117879862575e-01
9.439999999999999607e-04,5.368024423160963066e-01,5.343352964580386777e-01
9.519999999999999383e-04,5.326905325553463744e-01,5.302233867053094407e-01
9.599999999999999159e-04,5.280851936391455226e-01,5.257825241872753352e-01
9.680000000000000019e-04,5.238088075175300062e-01,5.215061380733108098e-01
9.759999999999999796e-04,5.193679450216294180e-01,5.175587047498746429e-01
9.839999999999998487e-04,5.150915589287916596e-01,5.127888894999650393e-01
9.920000000000000432e-04,5.104862200751586476e-01,5.083480270414214575e-01
1.000000000000000021e-03,5.060453576243144624e-01,5.040716409842359580e-01
1.007999999999999998e-03,5.019334479607568955e-01,4.996307785546458824e-01
1.015999999999999976e-03,4.971636327667237065e-01,4.955188689105917144e-01
1.023999999999999954e-03,4.928872467448919270e-01,4.910780065088959923e-01
1.031999999999999931e-03,4.887753371210558084e-01,4.864726677370369012e-01
1.039999999999999909e-03,4.841699983568199528e-01,4.818673289803859783e-01
1.047999999999999887e-03,4.795646596077156598e-01,4.774264666221610387e-01
1.055999999999999864e-03,4.752882736398199581e-01,4.728211278949381313e-01
1.064000000000000059e-03,4.708474113020826302e-01,4.683802655648062752e-01
1.072000000000000036e-03,4.659131198317220113e-01,4.636104504846051411e-01
1.080000000000000014e-03,4.611433047595594470e-01,4.590051118011893028e-01
1.087999999999999991e-03,4.568669188459012487e-01,4.545642495128660032e-01
1.095999999999999969e-03,4.525905329445092384e-01,4.501233872376996237e-01
1.103999999999999947e-03,4.478207179149699124e-01,4.458470013554020062e-01
1.111999999999999924e-03,4.432153792799359282e-01,4.414061391056637307e-01
1.119999999999999902e-03,4.389389934168831386e-01,4.366363241108845994e-01
1.127999999999999879e-03,4.341691784296460854e-01,4.318665091306458370e-01
1.135999999999999857e-03,4.297283162131448897e-01,4.274256469205864883e-01
1.144000000000000052e-03,4.249585012536635231e-01,4.229847847228471736e-01
1.152000000000000029e-03,4.205176390627092253e-01,4.178860170293469123e-01
1.160000000000000007e-03,4.157478241303508293e-01,4.134451548576091318e-01
1.167999999999999984e-03,4.109780092117895078e-01,4.086753399456476421e-01
1.175999999999999962e-03,4.063726706826625845e-01,4.040700014228153503e-01
1.183999999999999940e-03,4.017673321660866215e-01,3.991357101621910708e-01
1.191999999999999917e-03,3.971619936619088520e-01,3.945303716650292447e-01
1.199999999999999895e-03,3.925566551699763984e-01,3.897605568057841419e-01
1.207999999999999872e-03,3.879513166901366050e-01,3.853196947070273159e-01
1.215999999999999850e-03,3.828525491013778925e-01,3.807143562458815689e-01
1.224000000000000045e-03,3.784116870197056226e-01,3.759445414234555694e-01
1.232000000000000022e-03,3.734773958305177555e-01,3.711747266134102219e-01
1.240000000000000000e-03,3.690365337715018068e-01,3.665693881877135629e-01
1.247999999999999977e-03,3.642667189790862459e-01,3.616350970297826928e-01
1.255999999999999955e-03,3.590034750840928046e-01,3.570297586271797829e-01
1.263999999999999933e-03,3.543981366877452244e-01,3.520954674936410678e-01
1.271999999999999910e-03,3.497927983022245391e-01,3.469967000019471559e-01
1.279999999999999888e-03,3.448585071867217300e-01,3.423913616335066967e-01
1.287999999999999865e-03,3.404176451930905900e-01,3.374570705360315781e-01
1.295999999999999843e-03,3.351544013612539619e-01,3.330162085583844300e-01
1.304000000000000038e-03,3.305490630193209656e-01,3.282463938521273938e-01
1.312000000000000015e-03,3.259437246874236083e-01,3.233121027879293230e-01
1.319999999999999993e-03,3.208449572600589050e-01,3.187067644714937087e-01
1.327999999999999970e-03,3.162396189488081433e-01,3.137724734288663830e-01
1.335999999999999948e-03,3.113053279116451688e-01,3.090026587646723666e-01
1.343999999999999926e-03,3.066999896200297560e-01,3.042328441104769077e-01
1.351999999999999903e-03,3.016012222365183626e-01,2.994630294661103642e-01
1.359999999999999881e-03,2.968314075975019839e-01,2.943642620983266123e-01
1.367999999999999858e-03,2.917326402353338510e-01,2.894299711075594139e-01
1.375999999999999836e-03,2.867983492498992204e-01,2.843312037608890508e-01
1.384000000000000031e-03,2.820285346400149828e-01,2.797258655212473411e-01
1.392000000000000008e-03,2.774231964045672516e-01,2.749560509247046536e-01
1.399999999999999986e-03,2.723244290821086322e-01,2.696928072421587719e-01
1.407999999999999963e-03,2.673901381343510852e-01,2.649229926639024013e-01
1.415999999999999941e-03,2.626203235601856090e-01,2.599887017297475844e-01
1.423999999999999919e-03,2.578505089943682327e-01,2.553833635325101215e-01
1.431999999999999896e-03,2.529162180728165010e-01,2.504490726152640567e-01
1.439999999999999874e-03,2.481464035234594301e-01,2.455147817064883831e-01
1.447999999999999851e-03,2.427186835285373434e-01,2.405804908059951119e-01
1.455999999999999829e-03,2.379488689957204584e-01,2.354817235506536655e-01
1.464000000000000024e-03,2.328501017447588417e-01,2.305474326664219142e-01
1.472000000000000001e-03,2.284092399523276473e-01,2.257776181523309666e-01
1.479999999999999979e-03,2.229815199921809932e-01,2.205143745587354875e-01
1.487999999999999956e-03,2.178827527650795959e-01,2.152511309734803091e-01
1.495999999999999934e-03,2.129484619074956120e-01,2.103168401196756077e-01
1.503999999999999912e-03,2.080141710569539115e-01,2.057115019957249380e-01
1.511999999999999889e-03,2.030798802132665892e-01,2.006127347939346273e-01
1.519999999999999867e-03,1.984745420985102038e-01,1.956784439601766123e-01
1.527999999999999844e-03,1.932112985457036247e-01,1.907441531328032402e-01
1.536000000000000039e-03,1.881125313607498462e-01,1.854809095904305927e-01
1.544000000000000017e-03,1.831782405428013516e-01,1.807110951360546003e-01
1.551999999999999994e-03,1.780794733704597343e-01,1.756123279666913228e-01
1.559999999999999972e-03,1.731451825643280373e-01,1.706780371633464521e-01
1.567999999999999949e-03,1.680464154037957791e-01,1.657437463654341803e-01
1.575999999999999927e-03,1.631121246087040844e-01,1.606449792130991983e-01
1.583999999999999905e-03,1.581778338187569410e-01,1.555462120661570968e-01
1.591999999999999882e-03,1.529145903149386199e-01,1.507763976430711028e-01
1.599999999999999860e-03,1.481447758942837367e-01,1.453486777876222269e-01
1.607999999999999837e-03,1.428815324005840992e-01,1.404143870146395412e-01
1.616000000000000032e-03,1.381117179887237922e-01,1.353156198870517635e-01
1.624000000000000010e-03,1.326839981455007755e-01,1.302168527638269402e-01
1.631999999999999987e-03,1.274207546657715462e-01,1.254470383619956941e-01
1.639999999999999965e-03,1.229798929831092957e-01,1.201837948881296914e-01
1.647999999999999942e-03,1.175521731527084390e-01,1.152495041350113936e-01
1.655999999999999920e-03,1.129468351180377833e-01,1.103152133852150080e-01
1.663999999999999898e-03,1.080125443697273063e-01,1.053809226385526154e-01
1.671999999999999875e-03,1.025848245500970424e-01,1.001176791786887038e-01
1.679999999999999853e-03,9.765053380796678839e-02,9.501891207992685384e-02
1.687999999999999830e-03,9.238729035261269984e-02,8.992014498388946342e-02
1.696000000000000025e-03,8.728852325790034672e-02,8.498585424818749789e-02
1.704000000000000003e-03,8.235423252337881195e-02,7.972261079915869686e-02
1.711999999999999980e-03,7.725546543321154536e-02,7.478832006773315777e-02
1.719999999999999958e-03,7.199222198739468892e-02,6.936060026521502497e-02
1.727999999999999935e-03,6.705793125867616500e-02,6.459078589488617683e-02
1.735999999999999913e-03,6.195916417389341069e-02,5.965649516832731425e-02
1.743999999999999891e-03,5.702487344800053620e-02,5.455772808548010194e-02
1.751999999999999868e-03,5.192610636573624650e-02,4.929448464625137138e-02
1.759999999999999846e-03,4.699181564189215676e-02,4.403124120794459778e-02
1.767999999999999823e-03,4.172857220391702759e-02,3.926142684258461524e-02
1.776000000000000018e-03,3.679428148135926308e-02,3.416265976281042394e-02
1.783999999999999996e-03,3.185999075913578671e-02,2.906389268328619241e-02
1.791999999999999973e-03,2.676122367965647064e-02,2.445855467601635441e-02
1.799999999999999951e-03,2.149798024271876856e-02,1.919531123898316621e-02
1.807999999999999928e-03,1.639921316291833436e-02,1.376759144413994274e-02
1.815999999999999906e-03,1.113596972520721623e-02,8.668824363542278200e-03
1.823999999999999884e-03,5.872726286764759496e-03,3.405580924678505705e-03
1.831999999999999861e-03,7.739592048610216546e-04,-1.528709800220365289e-03
1.839999999999999839e-03,-3.995855163079944927e-03,-6.627476883799970908e-03
1.847999999999999816e-03,-9.259098604895266149e-03,-1.172624396878822750e-02
1.856000000000000011e-03,-1.419338933305953898e-02,-1.682501105539242758e-02
1.863999999999999988e-03,-1.929215642052008184e-02,-2.192377814381990531e-02
1.871999999999999966e-03,-2.422644715214999911e-02,-2.685806887648743702e-02
1.879999999999999944e-03,-2.932521424359307849e-02,-3.162788325338371231e-02
1.887999999999999921e-03,-3.442398133736769561e-02,-3.705560306416715022e-02
1.895999999999999899e-03,-3.968722479167140216e-02,-4.198989380383823244e-02
1.903999999999999877e-03,-4.462151553274087967e-02,-4.708866090430113838e-02
1.911999999999999854e-03,-4.988475899293506877e-02,-5.202295164959014340e-02
1.919999999999999832e-03,-5.481904973992814123e-02,-5.728619511459581704e-02
1.927999999999999809e-03,-6.008229320686883645e-02,-6.254943858329731210e-02
1.936000000000000004e-03,-6.501658396058801470e-02,-6.764820569734156241e-02
1.943999999999999981e-03,-7.027982743513128128e-02,-7.258249645656972282e-02
1.951999999999999959e-03,-7.554307091393336338e-02,-7.768126357846547037e-02
1.959999999999999937e-03,-8.014840896155803196e-02,-8.278003070465900226e-02
1.967999999999999697e-03,-8.541165244896006814e-02,-8.804327419448973457e-02
1.975999999999999892e-03,-9.034594322285846579e-02,-9.281308861148615530e-02
1.984000000000000086e-03,-9.528023400126411913e-02,-9.791185575165498034e-02
1.991999999999999847e-03,-1.005434775034098616e-01,-1.028461465373367023e-01
2.000000000000000042e-03,-1.051488155723487583e-01,-1.079449136877784765e-01
2.007999999999999802e-03,-1.104120590851254136e-01,-1.130436808437485785e-01
2.015999999999999997e-03,-1.155108262438449551e-01,-1.179779716453076832e-01
2.023999999999999758e-03,-1.202806406879264323e-01,-1.232412151731031302e-01
2.031999999999999952e-03,-1.258728369394441216e-01,-1.281755059863588786e-01
2.039999999999999713e-03,-1.308071277558486567e-01,-1.332742731663072167e-01
2.047999999999999907e-03,-1.357414185783012428e-01,-1.378796112699562926e-01
2.056000000000000102e-03,-1.408401857680556257e-01,-1.433073311849049625e-01
2.063999999999999863e-03,-1.457744766033853001e-01,-1.485705747463310356e-01
2.072000000000000057e-03,-1.505442910838260540e-01,-1.533403892304758820e-01
2.079999999999999818e-03,-1.558075346558309704e-01,-1.582746800829360478e-01
