# tiempo (s), tension (V)
0.000000000000000000e+00,-9.530246834916523690e-01,-9.944727580894830998e-01
3.199999999999999855e-05,-9.977622879356810026e-01,-1.004176871185751940e+00
6.399999999999999710e-05,-1.002367629749536970e+00,-9.730908145085225280e-01
9.600000000000000243e-05,-9.665117550898777443e-01,-9.028593586248091496e-01
1.279999999999999942e-04,-8.915104823669244283e-01,-7.959496618684251956e-01
1.599999999999999860e-04,-7.803243997756176276e-01,-6.571315542380394836e-01
1.920000000000000049e-04,-6.375588607253016571e-01,-4.913393386535919172e-01
2.239999999999999966e-04,-4.691350259180323556e-01,-3.059744570565220423e-01
2.559999999999999884e-04,-2.813030014490793818e-01,-1.077804373280016326e-01
2.880000000000000073e-04,-8.228660162773701603e-02,9.534786479589157926e-02
3.199999999999999720e-04,1.203482712466263649e-01,2.938708329987965717e-01
3.519999999999999908e-04,3.183778117349762571e-01,4.812094234449540986e-01
3.840000000000000097e-04,5.034137354381882368e-01,6.491398225538017597e-01
4.159999999999999744e-04,6.683835623574451157e-01,7.915764016452840890e-01
4.479999999999999933e-04,8.070371864339664914e-01,9.014466660380029417e-01
4.799999999999999580e-04,9.129600180158651268e-01,9.757900278186620868e-01
5.119999999999999768e-04,9.822046102939864243e-01,1.010823517476313382e+00
5.439999999999999957e-04,1.012303805812776902e+00,1.005066840644262438e+00
5.760000000000000146e-04,1.001448358090055279e+00,9.593423807237588807e-01
6.079999999999999251e-04,9.506251279236730412e-01,8.746370042729482153e-01
6.399999999999999439e-04,8.616433648660696276e-01,7.553915872882108751e-01
6.719999999999999628e-04,7.381215627838257909e-01,6.057180519937274132e-01
7.039999999999999817e-04,5.848295493466575401e-01,4.313730799955821649e-01
7.360000000000000006e-04,4.081819108176000244e-01,2.402515380795854638e-01
7.680000000000000195e-04,2.157445600592498569e-01,3.942590320000317894e-02
7.999999999999999299e-04,1.426102051642178653e-02,-1.627155418562101774e-01
8.319999999999999488e-04,-1.877159489898541922e-01,-3.582779440248603509e-01
8.639999999999999677e-04,-3.817980660485639222e-01,-5.390374933137319635e-01
8.959999999999999866e-04,-5.604194253579765084e-01,-6.982506596075559457e-01
9.280000000000000054e-04,-7.160141137148789969e-01,-8.286804750686889154e-01
9.599999999999999159e-04,-8.429899265135184505e-01,-9.260505411286878985e-01
9.920000000000000432e-04,-9.352612237631573455e-01,-9.855910275910305662e-01
1.023999999999999954e-03,-9.905253222968836146e-01,-1.005657159637494358e+00
1.055999999999999864e-03,-1.005163730153186830e+00,-9.846041686544978466e-01
1.087999999999999991e-03,-9.793409210190028302e-01,-9.240768234378132773e-01
1.119999999999999902e-03,-9.138792821271074507e-01,-8.258843753932653131e-01
1.152000000000000029e-03,-8.114104478278193477e-01,-6.944677018349947328e-01
1.183999999999999940e-03,-6.758818660552663449e-01,-5.347611069540297857e-01
1.215999999999999850e-03,-5.130502226043647251e-01,-3.533436527343107869e-01
1.247999999999999977e-03,-3.294945783646604509e-01,-1.574522982737051047e-01
1.279999999999999888e-03,-1.324518913626515915e-01,4.468914663769031625e-02
1.312000000000000015e-03,7.018298205334672080e-02,2.453503053430062253e-01
1.343999999999999926e-03,2.698572836070786685e-01,4.363073713531618880e-01
1.375999999999999836e-03,4.590051118011893028e-01,6.098299620096160334e-01
1.407999999999999963e-03,6.298960831099141844e-01,7.590100686556646714e-01
1.439999999999999874e-03,7.756221878540500159e-01,8.775975803714872736e-01
1.472000000000000001e-03,8.899333142412257924e-01,9.608226689460601655e-01
1.503999999999999912e-03,9.685530630479108893e-01,1.006053699526151979e+00
1.536000000000000039e-03,1.008849799699601091e+00,1.011152470439680595e+00
1.567999999999999949e-03,1.008520846737396948e+00,9.746386925090465558e-01
1.599999999999999860e-03,9.672372512797057231e-01,8.993084721192662334e-01
1.631999999999999987e-03,8.871372145462109726e-01,7.881223965721345648e-01
1.663999999999999898e-03,7.718392299886777108e-01,6.456858180120639279e-01
1.696000000000000025e-03,6.256196966145626259e-01,4.770975138554381934e-01
1.727999999999999935e-03,4.545642495128660032e-01,2.892654947413729749e-01
1.759999999999999846e-03,2.650874690285285329e-01,9.024909769968465778e-02
1.791999999999999973e-03,6.475526225246108769e-02,-1.123857754039506718e-01
1.823999999999999884e-03,-1.375506585480863742e-01,-3.102508427268203528e-01
1.856000000000000011e-03,-3.342643932124683692e-01,-4.954512484628752489e-01
1.887999999999999921e-03,-5.174910852792766747e-01,-6.607500354362687567e-01
1.919999999999999832e-03,-6.798293001710257188e-01,-7.992391907699614162e-01
1.951999999999999959e-03,-8.143710238982205807e-01,-9.049975527233057315e-01
1.984000000000000086e-03,-9.155240468442354951e-01,-9.744066264003700129e-01
2.015999999999999997e-03,-9.803277799473267828e-01,-1.004670300669272764e+00
2.047999999999999907e-03,-1.005163730153186830e+00,-9.936503756306397372e-01
2.079999999999999818e-03,-9.895384633526159712e-01,-9.426626652584199073e-01
2.111999999999999728e-03,-9.336164589976633232e-01,-8.536808961655976136e-01
2.144000000000000072e-03,-8.401938267841237984e-01,-7.303235631235132086e-01
2.175999999999999983e-03,-7.127245851490440209e-01,-5.771960184865104759e-01
2.207999999999999893e-03,-5.563075153172619691e-01,-4.007128497504718334e-01
2.239999999999999804e-03,-3.771927274432175237e-01,-2.079465417578173214e-01
2.271999999999999714e-03,-1.829461344554045021e-01,-6.463000526244280786e-03
2.304000000000000058e-03,1.903083488157090997e-02,1.955139675991623416e-01
2.335999999999999969e-03,2.201854218344150294e-01,3.897605568057841419e-01
2.367999999999999879e-03,4.131162021046216326e-01,5.678884805504104127e-01
2.399999999999999790e-03,5.889414592860652276e-01,7.239765905797417300e-01
2.431999999999999700e-03,7.414110912350663218e-01,8.507879194545601154e-01
2.464000000000000044e-03,8.642749880191948897e-01,9.435526398834686024e-01
2.495999999999999955e-03,9.522698925945102255e-01,9.983233049911036661e-01
2.527999999999999865e-03,1.002435216966495402e+00,1.013126188223380408e+00
2.559999999999999776e-03,1.011974852848826822e+00,9.873033810232852980e-01
2.591999999999999686e-03,9.810532749733927860e-01,9.218417468097374057e-01
2.624000000000000030e-03,9.109863005209818398e-01,8.192084427488061094e-01
2.655999999999999941e-03,8.039121341661471520e-01,6.838443450319620087e-01
2.687999999999999851e-03,6.650940341599083094e-01,5.210127089072255080e-01
2.719999999999999762e-03,4.993018257826640216e-01,3.377860232754945624e-01
2.751999999999999672e-03,3.136079970609673140e-01,1.410722924507858134e-01
2.784000000000000016e-03,1.154139804933941166e-01,-6.189153314949971674e-02
2.815999999999999927e-03,-8.705641603977035126e-02,-2.615658371762734635e-01
2.847999999999999837e-03,-2.859083398060762171e-01,-4.507136704587457743e-01
2.879999999999999748e-03,-4.734114120441744733e-01,-6.219336014851526429e-01
2.911999999999999658e-03,-6.415062946785816678e-01,-7.671662845687005072e-01
2.944000000000000002e-03,-7.832849757272132285e-01,-8.818063709310935971e-01
2.975999999999999913e-03,-8.938131528969492923e-01,-9.605906016706754480e-01
3.007999999999999823e-03,-9.676630904832678182e-01,-1.000558388318597114e+00
3.039999999999999734e-03,-1.002861059231617391e+00,-1.000393911825136595e+00
3.072000000000000078e-03,-9.971043819650543538e-01,-9.589458368416426959e-01
3.103999999999999988e-03,-9.513799186817714082e-01,-8.795037004406212056e-01
3.135999999999999899e-03,-8.668390128770397940e-01,-7.643701851150915827e-01
3.167999999999999809e-03,-7.475935885957168958e-01,-6.178216912002916228e-01
3.199999999999999720e-03,-5.975910928454302162e-01,-4.466017607930456990e-01
3.232000000000000064e-03,-4.239040196612925415e-01,-2.567960225039398470e-01
3.263999999999999974e-03,-2.326179965585969123e-01,-5.679276603959806935e-02
3.295999999999999885e-03,-3.195683596910801894e-02,1.455131541467975520e-01
3.327999999999999795e-03,1.705135608033295502e-01,3.423913616335066967e-01
3.359999999999999706e-03,3.662404354434525278e-01,5.254535714087741338e-01
3.392000000000000050e-03,5.468355021890118906e-01,6.874628261186391809e-01
3.423999999999999960e-03,7.060486610055521917e-01,8.221690186367833775e-01
3.455999999999999871e-03,8.366429453577044484e-01,9.238154643344245187e-01
3.487999999999999781e-03,9.335195755770849813e-01,9.884547163546468784e-01
3.519999999999999692e-03,9.937179636091225676e-01,1.013290664705626343e+00
3.552000000000000036e-03,1.013290664705626343e+00,9.973364461208318321e-01
3.583999999999999946e-03,9.925666282686387287e-01,9.419078752332418203e-01
3.615999999999999857e-03,9.320392874128400340e-01,8.483207727913467666e-01
3.647999999999999767e-03,8.340113222979685936e-01,7.203581093533913959e-01
3.679999999999999678e-03,7.022657034328321224e-01,5.642699998683159412e-01
3.712000000000000022e-03,5.432170215697731397e-01,3.853196947070273159e-01
3.743999999999999932e-03,3.619640497732473650e-01,1.910731058544332672e-01
3.775999999999999843e-03,1.659082227252790531e-01,-1.123281489598011718e-02
3.807999999999999753e-03,-3.656217399033941107e-02,-2.122229272398669375e-01
3.839999999999999664e-03,-2.370588584484063233e-01,-4.049892356637756485e-01
3.872000000000000008e-03,-4.280159292590670628e-01,-5.809789757971388635e-01
3.903999999999999918e-03,-6.015385266389172703e-01,-7.336130917573655541e-01
3.935999999999999395e-03,-7.507186408624439977e-01,-8.561480430306989131e-01
3.968000000000000173e-03,-8.694706362482925721e-01,-9.444719065254428836e-01
4.000000000000000083e-03,-9.526957305293443090e-01,-9.944727580894830998e-01
4.031999999999999994e-03,-9.977622879356810026e-01,-1.004012394691332188e+00
4.063999999999999904e-03,-1.002203153255597279e+00,-9.730908145085225280e-01
4.095999999999999815e-03,-9.665117550898777443e-01,-9.028593586248091496e-01
4.127999999999999725e-03,-8.915104823669244283e-01,-7.961141383131702387e-01
4.159999999999999636e-03,-7.799954468927916551e-01,-6.571315542380394836e-01
4.191999999999999546e-03,-6.375588607253016571e-01,-4.915038150456988442e-01
4.223999999999999456e-03,-4.691350259180323556e-01,-3.056455043130501537e-01
4.256000000000000234e-03,-2.814674778187945536e-01,-1.076159609682305063e-01
4.288000000000000145e-03,-8.245107798670631150e-02,9.501891207992685384e-02
4.320000000000000055e-03,1.206772239636314525e-01,2.937063566323090957e-01
4.351999999999999966e-03,3.180488589985078773e-01,4.812094234449540986e-01
4.383999999999999876e-03,5.034137354381882368e-01,6.493042989608396320e-01
4.415999999999999787e-03,6.688769915880089512e-01,7.914119252129067084e-01
4.447999999999999697e-03,8.068727099985217865e-01,9.014466660380029417e-01
4.479999999999999608e-03,9.129600180158651268e-01,9.757900278186620868e-01
4.511999999999999518e-03,9.822046102939864243e-01,1.010987993957976228e+00
4.543999999999999428e-03,1.012468282294814115e+00,1.005066840644262438e+00
4.576000000000000206e-03,1.001283881610792958e+00,9.591779042548115308e-01
4.608000000000000117e-03,9.509540808575279724e-01,8.748014807225622524e-01
4.640000000000000027e-03,8.618078413128751336e-01,7.555560637136804480e-01
4.671999999999999938e-03,7.381215627838257909e-01,6.057180519937274132e-01
4.703999999999999848e-03,5.849940257439504299e-01,4.317020327522741452e-01
4.735999999999999759e-03,4.085108635696156343e-01,2.405804908059951119e-01
4.767999999999999669e-03,2.159090364211889157e-01,3.991933227226182601e-02
4.799999999999999580e-03,1.442549687384789975e-02,-1.625510654941329791e-01
4.831999999999999490e-03,-1.877159489898541922e-01,-3.577845148951466214e-01
4.863999999999999400e-03,-3.816335896695682850e-01,-5.388730169149827942e-01
4.896000000000000178e-03,-5.602549489560498808e-01,-6.980861831823246266e-01
4.928000000000000089e-03,-7.161785901435009372e-01,-8.288449515205101870e-01
4.959999999999999999e-03,-8.428254500585536935e-01,-9.258860646542265149e-01
4.991999999999999910e-03,-9.352612237631573455e-01,-9.857555040806028623e-01
# Medimos una señal de 1000Hz en 8 canales a fs 31250 con saltos de ganancia
