# tiempo (s), tension (V)
0.000000000000000000e+00,9.391117753367267396e-01,9.371380577694257141e-01
1.200004800019200028e-05,9.364801519148902020e-01,9.341774814288563711e-01
2.400009600038400056e-05,9.333550991142379738e-01,9.310524286383982107e-01
3.600014400057599746e-05,9.302300463274142395e-01,9.279273758617332390e-01
4.800019200076800112e-05,9.271049935543712595e-01,9.251312760205807617e-01
6.000024000096000479e-05,9.239799407950612942e-01,9.216772703495927921e-01
7.200028800115199491e-05,9.208548880494367150e-01,9.187166940734489140e-01
8.400033600134399858e-05,9.174008823990846828e-01,9.152626884333776580e-01
9.600038400153600225e-05,9.141113532237028494e-01,9.123021121836387692e-01
1.080004320017280059e-04,9.108218240633179086e-01,9.086836301170833075e-01
1.200004800019200096e-04,9.075322949178740162e-01,9.053941009813212260e-01
1.320005280021120133e-04,9.039138128750762169e-01,9.014466660380029417e-01
1.440005760023039898e-04,9.006242837608274820e-01,8.984860898444888555e-01
1.560006240024959935e-04,8.970058017522093419e-01,8.945386549383592678e-01
1.680006720026879972e-04,8.933873197613870776e-01,8.910846494128227269e-01
1.800007200028800008e-04,8.896043613353835644e-01,8.873016909985678158e-01
1.920007680030720045e-04,8.858214029286648472e-01,8.833542561520236758e-01
2.040008160032640082e-04,8.823673974436485601e-01,8.795712977769811758e-01
2.160008640034560118e-04,8.785844390735864096e-01,8.759528158708637102e-01
2.280009120036480155e-04,8.744725278233701493e-01,8.721698575330334435e-01
2.400009600038400192e-04,8.705250930442229862e-01,8.680579463176891775e-01
2.520010080040320228e-04,8.667421347334759441e-01,8.639460351245594749e-01
2.640010560042240265e-04,8.627946999944491324e-01,8.599986003999535722e-01
2.760011040044160302e-04,8.588472652757672687e-01,8.558866892500490708e-01
2.880011520046079796e-04,8.544064012414485099e-01,8.517747781220373904e-01
3.000012000047999833e-04,8.506234430101025090e-01,8.476628670158097290e-01
3.120012480049919870e-04,8.463470554663998779e-01,8.433864794883245697e-01
3.240012960051839907e-04,8.419061915034811161e-01,8.392745684261990746e-01
3.360013440053759943e-04,8.376298040073618667e-01,8.348337045031968273e-01
3.480013920055679980e-04,8.333534165343997602e-01,8.305573170453096621e-01
3.600014400057600017e-04,8.290770290844723389e-01,8.261164531710288861e-01
3.720014880059520053e-04,8.248006416574572564e-01,8.216755893213655293e-01
3.840015360061440090e-04,8.201953013769246459e-01,8.170702490586813083e-01
3.960015840063360127e-04,8.155899611226703483e-01,8.124649088221717053e-01
4.080016320065280163e-04,8.109846208945415968e-01,8.080240450473265001e-01
4.200016800067200200e-04,8.063792806923856249e-01,8.032542284270655086e-01
4.320017280069120237e-04,8.016094640816561201e-01,7.984844118343903396e-01
4.440017760071040273e-04,7.970041239319012316e-01,7.940435481348244728e-01
4.560018240072960310e-04,7.925632602402267191e-01,7.891092551630128904e-01
4.680018720074880347e-04,7.876289672771296102e-01,7.845039150821413454e-01
4.800019200076800384e-04,7.828591507736338828e-01,7.795696221661934100e-01
4.920019680078720420e-04,7.779248578672466330e-01,7.746353292788649147e-01
5.040020160080640457e-04,7.731550414182188913e-01,7.695365599918252419e-01
5.160020640082560494e-04,7.680562721399544213e-01,7.644377907349370060e-01
5.280021120084480530e-04,7.629575028917807700e-01,7.595034979342029091e-01
5.400021600086400567e-04,7.578587336734908808e-01,7.545692051613241969e-01
5.520022080088320604e-04,7.524310116350132471e-01,7.493059595674109730e-01
5.640022560090240640e-04,7.473322424777628648e-01,7.442071904281115646e-01
5.760023040092159593e-04,7.423979497727903887e-01,7.387794684731107120e-01
5.880023520094079630e-04,7.371347042507998548e-01,7.335162229722673732e-01
6.000024000095999666e-04,7.318714587595330778e-01,7.280885010815351110e-01
6.120024480097919703e-04,7.266082132987623510e-01,7.231542084815950622e-01
6.240024960099839740e-04,7.211804914490415053e-01,7.178909630708315559e-01
6.360025440101759776e-04,7.159172460495134560e-01,7.122987648546408312e-01
6.480025920103679813e-04,7.103250478451669236e-01,7.063776138386785863e-01
6.600026400105599850e-04,7.050618025068611239e-01,7.014433213538059375e-01
6.720026880107519886e-04,6.994696043670477481e-01,6.956866468205193943e-01
6.840027360109439923e-04,6.938774062600765458e-01,6.899299723218393909e-01
6.960027840111359960e-04,6.879562553587763585e-01,6.843377742702617672e-01
7.080028320113279997e-04,6.826930101435665366e-01,6.789100526626680177e-01
7.200028800115200033e-04,6.769363357219011501e-01,6.731533782631390350e-01
7.320029280117120070e-04,6.713441377444929747e-01,6.675611803070470307e-01
7.440029760119040107e-04,6.657519397985512954e-01,6.614755531550693401e-01
7.560030240120960143e-04,6.598307890662535868e-01,6.560478316721110037e-01
7.680030720122880180e-04,6.537451619608249942e-01,6.497977281821114559e-01
7.800031200124800217e-04,6.481529641121254182e-01,6.438765775424241111e-01
7.920031680126720253e-04,6.419028606700490913e-01,6.381199033417745969e-01
8.040032160128640290e-04,6.363106628852585045e-01,6.320342763640380834e-01
8.160032640130560327e-04,6.300605595139245896e-01,6.262776022281164590e-01
8.280033120132480363e-04,6.241394089855448746e-01,6.201919753181389661e-01
8.400033600134400400e-04,6.182182584898541222e-01,6.142708248440603702e-01
8.520034080136320437e-04,6.119681552239517597e-01,6.076917687994407569e-01
8.640034560138240474e-04,6.058825283940689754e-01,6.017706183928485109e-01
8.760035040140160510e-04,5.999613779971246785e-01,5.956849916188553529e-01
8.880035520142080547e-04,5.937112748343685853e-01,5.892704120818571534e-01
9.000036000144000584e-04,5.874611717061752891e-01,5.833492617720811291e-01
9.120036480145920620e-04,5.810465922154101071e-01,5.770991587003477807e-01
9.240036960147840657e-04,5.749609655519493101e-01,5.706845792668699957e-01
9.360037440149760694e-04,5.687108625251527938e-01,5.644344762627179213e-01
9.480037920151680730e-04,5.622962831372616543e-01,5.580198968977951868e-01
9.600038400153600767e-04,5.562106565702839012e-01,5.517697939596565293e-01
9.720038880155519720e-04,5.493026480718528060e-01,5.451907382698634175e-01
9.840039360157440840e-04,5.428880687867302379e-01,5.389406353969967700e-01
9.960039840159360877e-04,5.364734895347426091e-01,5.321971033849554056e-01
1.008004032016128091e-03,5.298944339256661529e-01,5.256180477980142429e-01
1.020004080016320095e-03,5.239732839065598391e-01,5.192034686331842286e-01
1.032004128016512099e-03,5.170652755852859217e-01,5.127888894999650393e-01
1.044004176016704102e-03,5.106506964625119327e-01,5.062098340111189643e-01
1.056004224016896106e-03,5.039071645976938019e-01,4.994663021686449600e-01
1.068004272017088110e-03,4.969991563810213231e-01,4.925582939745341005e-01
1.080004320017280113e-03,4.905845773540361554e-01,4.859792385838138662e-01
1.092004368017472117e-03,4.838410455885268080e-01,4.792357068404974330e-01
1.104004416017664121e-03,4.769330374721053589e-01,4.726566515120969036e-01
1.116004464017856124e-03,4.705184585368694661e-01,4.659131198317220113e-01
1.128004512018048128e-03,4.634459741028066349e-01,4.588406354199041637e-01
1.140004560018240132e-03,4.567024424648523651e-01,4.524260565639297571e-01
1.152004608018431919e-03,4.501233872376996237e-01,4.453535722159082111e-01
1.164004656018623922e-03,4.432153792799359282e-01,4.384455642795972441e-01
1.176004704018815926e-03,4.363073713531618880e-01,4.317020327522741452e-01
1.188004752019007930e-03,4.292348870787453530e-01,4.246295484983598767e-01
1.200004800019199933e-03,4.223268792131102956e-01,4.175570642754741213e-01
1.212004848019391937e-03,4.155833477536200471e-01,4.104845800830637659e-01
1.224004896019583941e-03,4.083463871935998357e-01,4.039055250472314285e-01
1.236004944019775944e-03,4.014383794153788543e-01,3.969975172869870672e-01
1.248004992019967948e-03,3.943658952903564829e-01,3.899250331800255820e-01
1.260005040020159952e-03,3.874578875680075862e-01,3.826880727277882643e-01
1.272005088020351955e-03,3.803854034991064337e-01,3.756155886775396358e-01
1.284005136020543959e-03,3.731484430850416922e-01,3.687075810268096721e-01
1.296005184020735963e-03,3.662404354434525278e-01,3.614706206580714509e-01
1.308005232020927966e-03,3.588389987126066050e-01,3.542336603166482689e-01
1.320005280021119970e-03,3.519309911227367360e-01,3.468322236314644869e-01
1.332005328021311974e-03,3.446940308164138100e-01,3.399242160832843807e-01
1.344005376021503977e-03,3.376215469057565199e-01,3.326872558196753982e-01
1.356005424021695981e-03,3.307135393885020092e-01,3.259437246874236083e-01
1.368005472021887985e-03,3.233121027879293230e-01,3.185422881032288212e-01
1.380005520022079988e-03,3.159106662126578424e-01,3.111408515439265665e-01
1.392005568022271992e-03,3.086737060295812185e-01,3.037394150088826850e-01
1.404005616022463996e-03,3.011077931354819159e-01,2.963379784974629616e-01
1.416005664022655999e-03,2.940353093652953165e-01,2.889365420090332925e-01
1.428005712022848003e-03,2.864693965178893298e-01,2.818640582743190404e-01
1.440005760023040007e-03,2.792324364246407953e-01,2.744626218290150410e-01
1.452005808023232010e-03,2.719954763519707441e-01,2.673901381343510852e-01
1.464005856023424014e-03,2.649229926639024013e-01,2.598242253654289291e-01
1.476005904023616018e-03,2.573570799018222721e-01,2.524227889811354597e-01
1.488005952023808021e-03,2.499556435240084251e-01,2.451858289795332269e-01
1.500006000024000025e-03,2.428831598918732293e-01,2.376199162695965816e-01
1.512006048024192029e-03,2.353172471877196803e-01,2.302184799410827709e-01
1.524006096024384032e-03,2.275868581395968648e-01,2.228170436298937962e-01
1.536006144024576036e-03,2.203498981965711923e-01,2.150866546115730304e-01
1.548006192024768040e-03,2.126195091839091222e-01,2.080141710569539115e-01
1.560006240024960043e-03,2.055470256342651902e-01,2.004482584327045291e-01
1.572006288025152047e-03,1.979811130151243881e-01,1.928823458238931865e-01
1.584006336025344051e-03,1.902507240504098529e-01,1.854809095904305927e-01
1.596006384025536054e-03,1.828492878218169748e-01,1.779149970101643330e-01
1.608006432025728058e-03,1.752833752462955585e-01,1.705135608033295502e-01
1.620006480025920062e-03,1.678819390438745507e-01,1.627831718892163160e-01
1.632006528026112065e-03,1.601515501341304604e-01,1.555462120661570968e-01
1.644006576026304069e-03,1.527501139555326737e-01,1.476513468165318310e-01
1.656006624026496073e-03,1.450197250692864537e-01,1.399209579375797485e-01
1.668006672026688076e-03,1.376182889118612862e-01,1.326839981455007755e-01
1.680006720026880080e-03,1.305458054813267155e-01,1.249536092861449621e-01
1.692006768027072084e-03,1.226509402659932552e-01,1.175521731527084390e-01
1.704006816027264087e-03,1.149205514182570359e-01,1.096573079521497018e-01
1.716006864027456091e-03,1.075191152950669138e-01,1.024203481919813141e-01
1.728006912027648095e-03,9.978872646255329548e-02,9.485443572194875161e-02
1.740006960027840098e-03,9.205833763674803327e-02,8.679509418434971924e-02
1.752007008028032102e-03,8.432794881692859401e-02,7.922918172593064468e-02
1.764007056028224106e-03,7.692651271778785937e-02,7.199222198739468892e-02
1.776007104028416109e-03,6.919612390759397047e-02,6.442630953731282029e-02
1.788007152028608113e-03,6.163021145879574864e-02,5.669592073298236612e-02
1.800007200028800117e-03,5.406429901300709162e-02,4.913000828879152126e-02
1.812007248028992120e-03,4.649838656955059685e-02,4.172857220391702759e-02
1.824007296029184124e-03,3.893247412774889643e-02,3.366923069059079426e-02
1.836007344029376128e-03,3.136656168692459473e-02,2.610331825004690715e-02
1.848007392029568131e-03,2.363617288899587388e-02,1.853740580933182364e-02
1.860007440029760135e-03,1.574130773323664800e-02,1.097149336776814810e-02
1.872007488029952139e-03,8.504348006091663748e-03,3.076628209716492091e-03
1.884007536030144142e-03,4.450064898636751920e-04,-4.324807878150413454e-03
1.896007584030336146e-03,-6.956429598915778167e-03,-1.221967304161146461e-02
1.908007632030528150e-03,-1.435786569069165408e-02,-1.962110913590395245e-02
1.920007680030720153e-03,-2.208825450154380809e-02,-2.685806887648743702e-02
1.932007728030911940e-03,-2.948969060141927445e-02,-3.458845769527255087e-02
1.944007776031103944e-03,-3.738455578006603941e-02,-4.231884651990901192e-02
1.956007824031295948e-03,-4.495046824890845671e-02,-5.021371170930689909e-02
1.968007872031488168e-03,-5.284533344076290662e-02,-5.777962418962606650e-02
1.980007920031679955e-03,-6.057572228208668585e-02,-6.518106031910531062e-02
1.992007968031872175e-03,-6.797715841450802099e-02,-7.291144917398570402e-02
2.004008016032063962e-03,-7.537859455515405482e-02,-8.031288532046720885e-02
2.016008064032256183e-03,-8.310898342263040028e-02,-8.804327419448973457e-02
2.028008112032447970e-03,-9.067489594127653429e-02,-9.544471036062412983e-02
2.040008160032640190e-03,-9.791185575165498034e-02,-1.030106228969441817e-01
2.052008208032831977e-03,-1.054777682917258930e-01,-1.107410118048707259e-01
2.064008256033024197e-03,-1.135371099236597014e-01,-1.183069243656072189e-01
2.076008304033215984e-03,-1.207740697686469356e-01,-1.260373132998954815e-01
2.088008352033408205e-03,-1.283399823469021372e-01,-1.337677022485824485e-01
2.100008400033599992e-03,-1.363993240217619973e-01,-1.413336148512961410e-01
2.112008448033792212e-03,-1.434718075460859887e-01,-1.487350511077476789e-01
2.124008496033983999e-03,-1.513666728914360438e-01,-1.559720110175832619e-01
2.136008544034176219e-03,-1.582746800829360478e-01,-1.637024000288429537e-01
2.148008592034368006e-03,-1.660050690994578082e-01,-1.711038363330012191e-01
2.160008640034560227e-03,-1.735709817714805869e-01,-1.786697490171125779e-01
2.172008688034752014e-03,-1.811368944615516507e-01,-1.862356617197286346e-01
2.184008736034944234e-03,-1.885383308069097652e-01,-1.936370980778008011e-01
2.196008784035136021e-03,-1.962687198985480219e-01,-2.012030108190195621e-01
2.208008832035328241e-03,-2.035056799182153042e-01,-2.086044472161518726e-01
2.220008880035520028e-03,-2.112360690510961814e-01,-2.160058836335578547e-01
2.232008928035712249e-03,-2.186375054758635528e-01,-2.234073200718718344e-01
2.244008976035904036e-03,-2.257099891903777966e-01,-2.308087565317278600e-01
2.256009024036096256e-03,-2.331114256570651355e-01,-2.378812402807457260e-01
2.268009072036288043e-03,-2.403483857794548595e-01,-2.454471531515761418e-01
2.280009120036480263e-03,-2.480787750253956314e-01,-2.533420187820346614e-01
2.292009168036672050e-03,-2.554802115616385816e-01,-2.604145025992559148e-01
2.304009216036863837e-03,-2.630461244904642726e-01,-2.678159391763347275e-01
2.316009264037056058e-03,-2.701186083387879799e-01,-2.750528994095379209e-01
2.328009312037247844e-03,-2.773555685798259063e-01,-2.822898596675668115e-01
2.340009360037440065e-03,-2.847570052158567844e-01,-2.896912963213927883e-01
2.352009408037631852e-03,-2.919939655081053020e-01,-2.967637802604734532e-01
2.364009456037824072e-03,-2.993954021977507374e-01,-3.043296933397268145e-01
2.376009504038015859e-03,-3.064678861718358460e-01,-3.112377009597971922e-01
2.388009552038208080e-03,-3.135403701720888003e-01,-3.186391377236990063e-01
2.400009600038399867e-03,-3.209418069451631661e-01,-3.260405745173025061e-01
2.412009648038592087e-03,-3.285077201218802312e-01,-3.331130585928581134e-01
2.424009696038783874e-03,-3.355802042072285607e-01,-3.405144954463772411e-01
2.436009744038976094e-03,-3.428171646961045704e-01,-3.475869795803444573e-01
2.448009792039167881e-03,-3.498896488395780713e-01,-3.544949873674665408e-01
2.460009840039360102e-03,-3.567976566361594770e-01,-3.614029951831383425e-01
2.472009888039551889e-03,-3.640346172157733484e-01,-3.688044321607679699e-01
2.484009936039744109e-03,-3.711071014496017950e-01,-3.758769164155941755e-01
2.496009984039935896e-03,-3.781795857146550421e-01,-3.827849243229014542e-01
2.508010032040128116e-03,-3.850875936321253024e-01,-3.900218850205942056e-01
2.520010080040319903e-03,-3.926535071009414901e-01,-3.972588457525305650e-01
2.532010128040512124e-03,-3.995615150836057117e-01,-4.041668537564130359e-01
2.544010176040703911e-03,-4.063050467165089108e-01,-4.109103854103607345e-01
2.556010224040896131e-03,-4.132130547627370643e-01,-4.178183934784862608e-01
2.568010272041087918e-03,-4.201210628418973192e-01,-4.248908779636643152e-01
2.580010320041280138e-03,-4.271935473385508608e-01,-4.317988860996682110e-01
2.592010368041471925e-03,-4.336081263314146561e-01,-4.383779414991901824e-01
2.604010416041664146e-03,-4.406806108964593793e-01,-4.452859497026776525e-01
2.616010464041855933e-03,-4.477530954981719935e-01,-4.520294815544383393e-01
2.628010512042048153e-03,-4.546611037497269026e-01,-4.592664426040792280e-01
2.640010560042239940e-03,-4.610756828727031742e-01,-4.658454981383748361e-01
2.652010608042432160e-03,-4.681481675832541711e-01,-4.727535064853760627e-01
2.664010656042623947e-03,-4.748916995527128204e-01,-4.791680856981900272e-01
2.676010704042816168e-03,-4.816352315579409682e-01,-4.860760941177353356e-01
2.688010752043007955e-03,-4.883787635994183418e-01,-4.926551497910630628e-01
2.700010800043200175e-03,-4.947933428924623511e-01,-4.995631582860013964e-01
2.712010848043391962e-03,-5.013723986125904197e-01,-5.059777376379773761e-01
2.724010896043584182e-03,-5.076225015799006313e-01,-5.125567934192960529e-01
2.736010944043775969e-03,-5.145305101608075304e-01,-5.188068964454387588e-01
2.748010992043968190e-03,-5.212740423859865135e-01,-5.257149050921662292e-01
2.760011040044159977e-03,-5.278530982530765803e-01,-5.321294845868369539e-01
2.772011088044352197e-03,-5.344321541577978785e-01,-5.382151113202257031e-01
2.784011136044543984e-03,-5.403533045045900707e-01,-5.449586436847368986e-01
2.796011184044736204e-03,-5.469323604820379714e-01,-5.510442704876802322e-01
2.808011232044927991e-03,-5.531824636966590214e-01,-5.574588501270997254e-01
2.820011280045120212e-03,-5.595970433485922824e-01,-5.638734298041979676e-01
2.832011328045311999e-03,-5.661760994411438874e-01,-5.702880095193875176e-01
2.844011376045504219e-03,-5.724262027663200580e-01,-5.762091600598822083e-01
2.856011424045696006e-03,-5.783473533187420967e-01,-5.824592634441341232e-01
2.868011472045888226e-03,-5.847619331213982363e-01,-5.890383196783853803e-01
2.880011520046080013e-03,-5.911765129634899418e-01,-5.949594703249153627e-01
2.892011568046272234e-03,-5.969331872146673712e-01,-6.010450974138942248e-01
2.904011616046464021e-03,-6.030188143154253666e-01,-6.072952009486151104e-01
2.916011664046656241e-03,-6.092689178623625912e-01,-6.133808281118215966e-01
2.928011712046848028e-03,-6.151900686269505814e-01,-6.189730260783266047e-01
2.940011760047040248e-03,-6.212756958384226813e-01,-6.252231297254113862e-01
2.952011808047232035e-03,-6.270323702622625506e-01,-6.313087569990774028e-01
2.964011856047424256e-03,-6.332824739608835518e-01,-6.370654314822842279e-01
2.976011904047616043e-03,-6.390391484558756163e-01,-6.433155352459491993e-01
2.988011952047808263e-03,-6.452892522324520375e-01,-6.490722098013927965e-01
3.000012000048000050e-03,-6.510459267998944810e-01,-6.544999315572352927e-01
3.012012048048192270e-03,-6.564736485671437416e-01,-6.600921297628163931e-01
3.024012096048384057e-03,-6.620658467845724759e-01,-6.660132808407104310e-01
3.036012144048576278e-03,-6.679869978751162840e-01,-6.719344319566619150e-01
3.048012192048768065e-03,-6.739081490038257849e-01,-6.773621538466605418e-01
3.060012240048960285e-03,-6.796648237491919042e-01,-6.832833050364631733e-01
3.072012288049152072e-03,-6.850925456855565532e-01,-6.892044562652702711e-01
3.084012336049343859e-03,-6.908492205024603372e-01,-6.943032254104680723e-01
3.096012384049536079e-03,-6.961124660819424381e-01,-6.997309474360220438e-01
3.108012432049727866e-03,-7.017046645445241815e-01,-7.053231459216675603e-01
