# tiempo (s), tension (V)
0.000000000000000000e+00,2.343303890102998444e-01,2.422252544385842254e-01
1.599999999999999928e-05,2.443634471623060689e-01,2.519293598895399056e-01
3.199999999999999855e-05,2.545609817123728469e-01,2.617979417379020513e-01
4.800000000000000122e-05,2.642650872054979061e-01,2.715020472568413501e-01
6.399999999999999710e-05,2.739691927334192423e-01,2.812061528116428510e-01
7.999999999999999299e-05,2.833443455659695465e-01,2.909102584037357442e-01
9.600000000000000243e-05,2.935418802658328330e-01,3.006143640345494417e-01
1.119999999999999983e-04,3.030815095402535908e-01,3.099895169702313602e-01
1.279999999999999942e-04,3.124566624860113384e-01,3.200225754180561211e-01
1.440000000000000036e-04,3.224897209449946178e-01,3.295622048045033781e-01
1.599999999999999860e-04,3.318648739731282493e-01,3.391018342338714131e-01
1.759999999999999954e-04,3.414045034130599454e-01,3.488059400781496899e-01
1.920000000000000049e-04,3.509441328975980712e-01,3.581810932268013614e-01
2.079999999999999872e-04,3.603192860564877753e-01,3.678851991653313558e-01
2.239999999999999966e-04,3.701878683783792479e-01,3.772603524077086101e-01
2.399999999999999790e-04,3.797274980057349092e-01,3.867999820720483539e-01
2.559999999999999884e-04,3.889381749348063133e-01,3.961751354126119562e-01
2.719999999999999979e-04,3.983133282867993286e-01,4.050568596766526142e-01
2.880000000000000073e-04,4.075240053137616503e-01,4.147609658702117175e-01
3.039999999999999625e-04,4.167346823910805798e-01,4.241361193655301953e-01
3.199999999999999720e-04,4.262743122755506819e-01,4.333467965367603369e-01
3.359999999999999814e-04,4.354849894591572568e-01,4.420640446233354837e-01
3.519999999999999908e-04,4.446956666968304717e-01,4.511102455199399452e-01
3.680000000000000003e-04,4.535773912283634912e-01,4.603209228521283336e-01
3.840000000000000097e-04,4.624591158124025103e-01,4.695316002416787260e-01
3.999999999999999650e-04,4.718342695981724289e-01,4.785778013062901293e-01
4.159999999999999744e-04,4.807159942935814723e-01,4.872950496594633529e-01
4.319999999999999838e-04,4.894332426600480623e-01,4.968346799953388127e-01
4.479999999999999933e-04,4.986439202389395531e-01,5.052229756905951552e-01
4.640000000000000027e-04,5.073611687193175790e-01,5.139402242138746413e-01
4.799999999999999580e-04,5.162428936447185368e-01,5.226574727949077070e-01
4.960000000000000216e-04,5.249601422411802609e-01,5.313747214347301906e-01
5.119999999999999768e-04,5.333484381161667232e-01,5.404209229166824224e-01
5.279999999999999321e-04,5.420656868295041786e-01,5.488092188948884287e-01
5.439999999999999957e-04,5.509474119965023231e-01,5.573619913238413437e-01
5.599999999999999509e-04,5.590067552593990241e-01,5.655858110241667180e-01
5.760000000000000146e-04,5.680529569453131034e-01,5.739741071770854131e-01
5.919999999999999698e-04,5.759478239276463185e-01,5.825268797870281068e-01
6.079999999999999251e-04,5.846650729493882981e-01,5.907506996640973229e-01
6.239999999999999887e-04,5.930533692403062718e-01,5.991389960000369497e-01
6.399999999999999439e-04,6.011127127940640857e-01,6.073628159982435992e-01
6.560000000000000076e-04,6.093365328068991449e-01,6.154221596559367180e-01
6.719999999999999628e-04,6.172314000770608988e-01,6.231525505673352061e-01
6.879999999999999180e-04,6.251262674046627055e-01,6.315408471511650967e-01
7.039999999999999817e-04,6.335145640040377168e-01,6.391067617739175644e-01
7.199999999999999369e-04,6.409160022352649033e-01,6.470016292646967315e-01
7.360000000000000006e-04,6.491398225538017597e-01,6.548964968158181854e-01
7.519999999999999558e-04,6.571991665297058915e-01,6.626268880188347365e-01
7.680000000000000195e-04,6.647650813407486314e-01,6.705217556916522881e-01
7.839999999999999747e-04,6.721665197980142281e-01,6.782521470153056731e-01
7.999999999999999299e-04,6.802258639587150935e-01,6.853246327476115729e-01
8.159999999999999936e-04,6.871338732920206915e-01,6.932195006025794193e-01
8.319999999999999488e-04,6.950287411617814826e-01,7.004564628599146969e-01
8.480000000000000124e-04,7.024301798487229131e-01,7.076934251723329128e-01
8.639999999999999677e-04,7.093381893419896667e-01,7.149303875404269260e-01
8.799999999999999229e-04,7.167396281412192760e-01,7.220028735454249169e-01
8.959999999999999866e-04,7.239765905797417300e-01,7.292398360253500300e-01
9.119999999999999418e-04,7.308846002333225789e-01,7.366412749846918961e-01
9.280000000000000054e-04,7.379570863615797505e-01,7.430558554652108016e-01
9.439999999999999607e-04,7.448650961218643562e-01,7.502928181138823760e-01
9.599999999999999159e-04,7.519375823604469433e-01,7.572008279700711553e-01
9.759999999999999796e-04,7.586811158034605374e-01,7.639443614536046701e-01
9.920000000000000432e-04,7.654246492984430050e-01,7.705234185611509190e-01
1.007999999999999998e-03,7.721681828458740737e-01,7.771024757189635146e-01
1.023999999999999954e-03,7.785827635864441820e-01,7.835170564966531526e-01
1.039999999999999909e-03,7.848328679442266864e-01,7.900961137550505109e-01
1.055999999999999864e-03,7.917408780776937771e-01,7.963462181983079757e-01
1.072000000000000036e-03,7.978265060996250213e-01,8.025963226885084456e-01
1.087999999999999991e-03,8.040766106009997749e-01,8.090109036618747806e-01
1.103999999999999947e-03,8.103267151497898224e-01,8.149320553741988826e-01
1.119999999999999902e-03,8.160833904343738343e-01,8.210176835679452445e-01
1.135999999999999857e-03,8.224979715138966974e-01,8.269388353681084158e-01
1.152000000000000029e-03,8.282546468851937904e-01,8.325310343307055216e-01
1.167999999999999984e-03,8.341757987389459839e-01,8.386166626582527428e-01
1.183999999999999940e-03,8.400969506369044826e-01,8.442088617033335352e-01
1.199999999999999895e-03,8.455246732491442652e-01,8.496365843440871757e-01
1.215999999999999850e-03,8.512813487881421004e-01,8.555577363590038953e-01
1.232000000000000022e-03,8.567090714782750194e-01,8.606565061859772214e-01
1.247999999999999977e-03,8.618078413128751336e-01,8.659197524944961533e-01
1.263999999999999933e-03,8.672355640772895224e-01,8.713474752881821273e-01
1.279999999999999888e-03,8.726632868803727572e-01,8.764462452206737142e-01
1.295999999999999843e-03,8.777620568217472385e-01,8.815450151876633722e-01
1.312000000000000015e-03,8.826963503462956773e-01,8.868082616416065322e-01
1.327999999999999970e-03,8.877951203558563931e-01,8.915780787726262924e-01
1.343999999999999926e-03,8.924004610396961690e-01,8.963478959343748054e-01
1.359999999999999881e-03,8.979926604800644308e-01,9.012821895824940643e-01
1.375999999999999836e-03,9.022690483161023289e-01,9.058875303507375465e-01
1.392000000000000008e-03,9.067099126338410420e-01,9.101639182330356626e-01
1.407999999999999963e-03,9.113152534364217239e-01,9.146047825990527569e-01
1.423999999999999919e-03,9.155916413507655394e-01,9.187166940734489140e-01
1.439999999999999874e-03,9.201969822099920204e-01,9.233220349527415660e-01
1.455999999999999829e-03,9.244733701771992163e-01,9.274339464772018982e-01
1.472000000000000001e-03,9.280918523233199213e-01,9.318748109503373067e-01
1.487999999999999956e-03,9.326971932632326379e-01,9.356577695975857312e-01
1.503999999999999912e-03,9.364801519148902020e-01,9.394407282651495716e-01
1.519999999999999867e-03,9.404275870513438829e-01,9.432236869531136492e-01
1.536000000000000039e-03,9.443750222100343317e-01,9.470066456615624517e-01
1.551999999999999994e-03,9.479935044584504311e-01,9.502961749899743182e-01
1.567999999999999949e-03,9.514475102586031907e-01,9.544080866724459211e-01
1.583999999999999905e-03,9.547370396081005239e-01,9.573686630989884927e-01
1.599999999999999860e-03,9.583555219106650869e-01,9.608226689460601655e-01
1.616000000000000032e-03,9.616450512931639105e-01,9.639477218703115247e-01
1.631999999999999987e-03,9.646056277509214016e-01,9.670727748088587816e-01
1.647999999999999942e-03,9.677306806924843574e-01,9.701978277617496760e-01
1.663999999999999898e-03,9.710202101201635960e-01,9.733228807290319473e-01
1.679999999999999853e-03,9.738163101462371518e-01,9.759545042916246693e-01
1.696000000000000025e-03,9.767768866570392117e-01,9.794085102331144821e-01
1.711999999999999980e-03,9.792440337593082411e-01,9.815467043962622373e-01
1.727999999999999935e-03,9.820401338194948426e-01,9.840138515160601340e-01
1.743999999999999891e-03,9.846717574162089370e-01,9.863165221694155660e-01
1.759999999999999846e-03,9.866454751205432361e-01,9.884547163546468784e-01
1.776000000000000018e-03,9.891126222591759554e-01,9.909218634999872322e-01
1.791999999999999973e-03,9.915797694069584667e-01,9.930600577000295859e-01
1.807999999999999928e-03,9.935534871317881489e-01,9.950337754292701842e-01
1.823999999999999884e-03,9.955272048625005699e-01,9.973364461208318321e-01
1.839999999999999839e-03,9.976653990774250191e-01,9.989812109054391209e-01
1.856000000000000011e-03,9.991456873841257913e-01,1.000625975694154901e+00
1.871999999999999966e-03,1.001119405131571716e+00,1.002435216966495402e+00
1.887999999999999921e-03,1.002599693446046381e+00,1.003751028804057865e+00
1.903999999999999877e-03,1.003915505283938803e+00,1.004902364164092177e+00
1.919999999999999832e-03,1.005560270085021024e+00,1.006711605448239233e+00
1.936000000000000004e-03,1.006876081928864686e+00,1.008027417294401928e+00
1.951999999999999959e-03,1.008027417294401928e+00,1.009178752661971101e+00
1.967999999999999697e-03,1.009178752661971101e+00,1.010165611550077891e+00
1.984000000000000086e-03,1.010494564513112481e+00,1.010987993957976228e+00
2.000000000000000042e-03,1.011152470439680595e+00,1.012139329330781212e+00
2.015999999999999997e-03,1.011974852848826822e+00,1.012303805812776902e+00
2.031999999999999952e-03,1.012468282294814115e+00,1.013126188223380408e+00
2.047999999999999907e-03,1.013455141187913577e+00,1.013784094152613724e+00
2.063999999999999863e-03,1.013455141187913577e+00,1.013948570635025970e+00
2.079999999999999818e-03,1.013784094152613724e+00,1.014606476565093507e+00
2.095999999999999773e-03,1.014606476565093507e+00,1.014770953047714697e+00
2.111999999999999728e-03,1.014606476565093507e+00,1.014606476565093507e+00
2.128000000000000117e-03,1.014770953047714697e+00,1.014935429530377631e+00
2.144000000000000072e-03,1.014606476565093507e+00,1.014606476565093507e+00
2.160000000000000028e-03,1.014606476565093507e+00,1.014442000082514062e+00
2.175999999999999983e-03,1.014442000082514062e+00,1.014113047117480404e+00
2.191999999999999938e-03,1.013784094152613724e+00,1.013948570635025970e+00
2.207999999999999893e-03,1.013455141187913577e+00,1.013619617670242778e+00
2.223999999999999849e-03,1.013126188223380408e+00,1.012797235259013995e+00
2.239999999999999804e-03,1.012468282294814115e+00,1.011810376366914399e+00
2.255999999999999759e-03,1.012139329330781212e+00,1.011316946921426707e+00
2.271999999999999714e-03,1.010987993957976228e+00,1.010330088031574425e+00
2.288000000000000103e-03,1.010330088031574425e+00,1.009178752661971101e+00
2.304000000000000058e-03,1.009014276180765224e+00,1.008191893775358672e+00
2.320000000000000014e-03,1.007862940813486485e+00,1.007040558409531217e+00
2.335999999999999969e-03,1.006711605448239233e+00,1.005724746565356709e+00
2.351999999999999924e-03,1.005231317124474000e+00,1.004244458243824578e+00
2.367999999999999879e-03,1.003586552324218006e+00,1.002764169925638438e+00
2.383999999999999835e-03,1.002599693446046381e+00,1.000954928652391551e+00
2.399999999999999790e-03,1.000461499215098193e+00,9.996391168204320499e-01
2.415999999999999745e-03,9.991456873841257913e-01,9.976653990774250191e-01
2.431999999999999700e-03,9.971719696425969115e-01,9.956916813403258182e-01
2.448000000000000089e-03,9.950337754292701842e-01,9.938824400864980646e-01
2.464000000000000044e-03,9.930600577000295859e-01,9.914152929301545125e-01
2.480000000000000000e-03,9.907573870233461477e-01,9.891126222591759554e-01
2.495999999999999955e-03,9.886191928307181964e-01,9.871389045475388313e-01
2.511999999999999910e-03,9.863165221694155660e-01,9.846717574162089370e-01
2.527999999999999865e-03,9.840138515160601340e-01,9.822046102939864243e-01
2.543999999999999821e-03,9.812177514476421170e-01,9.795729867069610242e-01
2.559999999999999776e-03,9.787506043381306586e-01,9.767768866570392117e-01
2.575999999999999731e-03,9.761189807646273309e-01,9.739807866187190077e-01
2.591999999999999686e-03,9.731584042567100745e-01,9.713491630638083629e-01
2.608000000000000075e-03,9.703623042333527904e-01,9.680596336345357322e-01
2.624000000000000030e-03,9.670727748088587816e-01,9.649345806914639834e-01
2.639999999999999986e-03,9.641121983404045137e-01,9.618095277627032313e-01
2.655999999999999941e-03,9.609871454154017556e-01,9.585199983794157053e-01
2.671999999999999896e-03,9.573686630989884927e-01,9.549015160759866117e-01
2.687999999999999851e-03,9.542436102046772950e-01,9.517764631928486985e-01
2.703999999999999806e-03,9.506251279236730412e-01,9.476645515259988217e-01
2.719999999999999762e-03,9.466776927295776911e-01,9.442105457446436922e-01
2.735999999999999717e-03,9.432236869531136492e-01,9.407565399803841100e-01
2.751999999999999672e-03,9.394407282651495716e-01,9.366446283784665150e-01
2.768000000000000061e-03,9.358222460609698645e-01,9.328616697259266566e-01
2.784000000000000016e-03,9.318748109503373067e-01,9.285852817083083410e-01
2.799999999999999972e-03,9.275984229386742275e-01,9.243088937164486429e-01
2.815999999999999927e-03,9.231575584922563360e-01,9.205259351296387615e-01
2.831999999999999882e-03,9.192101234519571840e-01,9.160850707271287474e-01
2.847999999999999837e-03,9.147692590575776661e-01,9.114797298941977877e-01
2.863999999999999792e-03,9.103283946905501578e-01,9.070388655473426986e-01
2.879999999999999748e-03,9.057230538942282472e-01,9.022690483161023289e-01
2.895999999999999703e-03,9.011177131270219354e-01,8.976637075706322966e-01
2.911999999999999658e-03,8.963478959343748054e-01,8.932228433076804253e-01
2.928000000000000047e-03,8.919070316793444864e-01,8.879595968083586754e-01
2.944000000000000002e-03,8.868082616416065322e-01,8.830253032490873455e-01
2.959999999999999958e-03,8.817094916387882009e-01,8.780910097223749711e-01
2.975999999999999913e-03,8.766107216706822136e-01,8.728277633295572491e-01
2.991999999999999868e-03,8.715119517370810698e-01,8.674000405252983992e-01
3.007999999999999823e-03,8.660842289422212570e-01,8.623012706535032601e-01
3.023999999999999778e-03,8.608209826325711189e-01,8.567090714782750194e-01
3.039999999999999734e-03,8.555577363590038953e-01,8.514458252327389287e-01
3.055999999999999689e-03,8.501300136769383009e-01,8.456891496925261764e-01
3.072000000000000078e-03,8.440443852602628194e-01,8.400969506369044826e-01
3.088000000000000033e-03,8.386166626582527428e-01,8.345047516210031269e-01
3.103999999999999988e-03,8.331889400935927892e-01,8.284191233249817987e-01
3.119999999999999944e-03,8.271033118076256407e-01,8.221690186367833775e-01
3.135999999999999899e-03,8.210176835679452445e-01,8.167412961837787755e-01
3.151999999999999854e-03,8.150965318112667335e-01,8.103267151497898224e-01
3.167999999999999809e-03,8.090109036618747806e-01,8.040766106009997749e-01
3.183999999999999764e-03,8.025963226885084456e-01,7.981554589669425104e-01
3.199999999999999720e-03,7.966751710650394891e-01,7.917408780776937771e-01
3.215999999999999675e-03,7.899316373229637867e-01,7.853262972375949502e-01
3.232000000000000064e-03,7.836815329274878783e-01,7.787472400163228947e-01
3.248000000000000019e-03,7.771024757189635146e-01,7.724971357031963359e-01
3.263999999999999974e-03,7.705234185611509190e-01,7.659180785806171121e-01
3.279999999999999930e-03,7.641088378806843995e-01,7.586811158034605374e-01
3.295999999999999885e-03,7.572008279700711553e-01,7.522665352101270964e-01
3.311999999999999840e-03,7.504572945384011540e-01,7.455230018161023153e-01
3.327999999999999795e-03,7.437137611581152719e-01,7.381215627838257909e-01
3.343999999999999750e-03,7.364767985627159730e-01,7.310490766542833141e-01
3.359999999999999706e-03,7.295687888667069521e-01,7.241410669994593485e-01
3.375999999999999661e-03,7.221673499647895955e-01,7.172330573965924883e-01
3.392000000000000050e-03,7.149303875404269260e-01,7.098316185934483435e-01
3.408000000000000005e-03,7.080223780060339589e-01,7.022657034328321224e-01
3.423999999999999960e-03,7.006209392754920717e-01,6.953576939910940391e-01
3.439999999999999915e-03,6.933839770169113459e-01,6.876273025319904475e-01
3.455999999999999871e-03,6.858180619866616201e-01,6.798969111345379845e-01
3.471999999999999826e-03,6.780876706035339208e-01,6.723309962088002134e-01
3.487999999999999781e-03,6.705217556916522881e-01,6.650940341599083094e-01
3.503999999999999736e-03,6.627913644280514216e-01,6.571991665297058915e-01
3.519999999999999692e-03,6.548964968158181854e-01,6.494687753679039277e-01
3.535999999999999647e-03,6.473305820781166675e-01,6.414094314525401463e-01
3.552000000000000036e-03,6.391067617739175644e-01,6.336790404086101169e-01
3.567999999999999991e-03,6.313763707469253195e-01,6.254552202112373394e-01
3.583999999999999946e-03,6.238104561793742509e-01,6.173958764791307452e-01
3.599999999999999901e-03,6.154221596559367180e-01,6.095010092077801644e-01
3.615999999999999857e-03,6.071983395976816578e-01,6.014416655934078371e-01
3.631999999999999812e-03,5.993034723994061785e-01,5.928888928418504234e-01
3.647999999999999767e-03,5.907506996640973229e-01,5.846650729493882981e-01
3.663999999999999722e-03,5.828558325809788387e-01,5.766057295119079162e-01
3.679999999999999678e-03,5.741385835728382014e-01,5.677240041555303707e-01
3.695999999999999633e-03,5.659147638133567026e-01,5.596646608342508156e-01
3.712000000000000022e-03,5.575264677172960814e-01,5.511118883890889775e-01
3.727999999999999977e-03,5.488092188948884287e-01,5.427235923952414831e-01
3.743999999999999932e-03,5.404209229166824224e-01,5.341708200676732465e-01
3.759999999999999887e-03,5.317036742147562833e-01,5.249601422411802609e-01
3.775999999999999843e-03,5.229864255726950351e-01,5.162428936447185368e-01
3.791999999999999798e-03,5.145981297651323061e-01,5.076901214932709738e-01
3.807999999999999753e-03,5.053874520772986267e-01,4.986439202389395531e-01
3.823999999999999708e-03,4.965057272240330777e-01,4.900911481993525110e-01
3.839999999999999664e-03,4.876240024285699581e-01,4.808804706773531779e-01
3.855999999999999619e-03,4.784133249227859874e-01,4.718342695981724289e-01
3.872000000000000008e-03,4.695316002416787260e-01,4.631170213392649115e-01
3.887999999999999963e-03,4.608143519965320900e-01,4.540708203705335899e-01
3.903999999999999918e-03,4.520971038028246403e-01,4.450246194563339808e-01
3.919999999999999873e-03,4.428864265208195539e-01,4.358139422167073285e-01
3.935999999999999395e-03,4.335112729153031141e-01,4.264387886533623773e-01
3.951999999999999784e-03,4.244650721207331445e-01,4.173925878985624838e-01
3.968000000000000173e-03,4.150899186235259553e-01,4.081819108176000244e-01
3.983999999999999694e-03,4.057147651795297572e-01,3.989712337870813252e-01
4.000000000000000083e-03,3.965040881623151936e-01,3.894316040573471138e-01
4.015999999999999605e-03,3.869644584460153469e-01,3.800564507523908064e-01
4.031999999999999994e-03,3.777537815270470833e-01,3.705168211233316189e-01
4.047999999999999515e-03,3.683786282821751579e-01,3.611416679146913777e-01
4.063999999999999904e-03,3.585100459696759501e-01,3.517665147518460600e-01
4.079999999999999426e-03,3.492993691901259412e-01,3.423913616335066967e-01
4.095999999999999815e-03,3.394307869735970762e-01,3.325227794503401446e-01
4.112000000000000204e-03,3.298911575427248000e-01,3.226541973135566010e-01
4.127999999999999725e-03,3.203515281548200422e-01,3.127856152216527685e-01
4.144000000000000114e-03,3.108118988085253331e-01,3.032459859073933783e-01
4.159999999999999636e-03,3.007788404015153683e-01,2.937063566323090957e-01
4.176000000000000024e-03,2.912392111363415470e-01,2.838377746633805598e-01
